D:\AL\TERPENESTANDARD\ABFR_20180831-2.d 31 Aug 18   6:09 pm
Start of data points
3.09125,48898
3.09558,49656
3.09992,50968
3.10427,49684
3.1086,51398
3.11293,51001
3.11727,49252
3.1216,48928
3.12593,50463
3.13027,49683
3.1346,48451
3.13893,49514
3.14328,49688
3.14762,50019
3.15195,50697
3.15628,47965
3.16062,46829
3.16495,48360
3.16928,47227
3.17362,47919
3.17797,48577
3.1823,47337
3.18663,49037
3.19097,48699
3.1953,47118
3.19963,47934
3.20397,48952
3.2083,48579
3.21263,46726
3.21698,48690
3.22132,45850
3.22565,47385
3.22998,46605
3.23432,48159
3.23865,47719
3.24298,49426
3.24732,45902
3.25167,46937
3.256,45862
3.26033,48872
3.26467,46743
3.269,46074
3.27333,45952
3.27767,46675
3.282,46414
3.28633,46925
3.29068,47330
3.29502,46481
3.29935,46448
3.30368,46909
3.30802,45211
3.31235,44239
3.31668,45910
3.32102,47411
3.32537,45807
3.3297,46151
3.33403,45920
3.33837,47105
3.3427,46818
3.34703,47475
3.35137,46104
3.3557,45939
3.36003,46630
3.36438,44457
3.36872,43857
3.37305,46067
3.37738,48175
3.38172,45145
3.38605,45889
3.39038,44996
3.39472,44904
3.39907,45971
3.4034,45309
3.40773,44329
3.41207,44938
3.4164,44520
3.42073,45625
3.42507,45974
3.4294,45168
3.43375,45175
3.43808,45778
3.44242,45227
3.44675,43608
3.45108,44634
3.45542,46467
3.45975,42806
3.46408,46276
3.46842,44834
3.47277,44822
3.4771,45630
3.48143,44043
3.48577,44341
3.4901,44879
3.49443,42702
3.49877,44356
3.5031,45107
3.50745,43300
3.51178,45080
3.51612,44644
3.52045,43355
3.52478,44102
3.52912,44466
3.53345,44169
3.53778,46655
3.54212,46453
3.54647,45367
3.5508,45115
3.55513,44746
3.55947,44123
3.5638,44900
3.56813,43881
3.57247,43873
3.5768,44358
3.58115,45101
3.58548,44647
3.58982,44233
3.59415,45764
3.59848,43786
3.60282,44504
3.60715,45600
3.61148,44385
3.61582,44653
3.62017,44076
3.6245,43408
3.62883,43497
3.63317,44154
3.6375,45257
3.64183,44138
3.64617,44079
3.6505,43598
3.65485,43714
3.65918,44439
3.66352,43574
3.66785,43386
3.67218,43581
3.67652,45412
3.68085,45128
3.68518,43616
3.68952,44036
3.69387,43282
3.6982,44034
3.70253,43390
3.70687,43984
3.7112,44265
3.71553,45307
3.71987,45162
3.7242,63219
3.72855,184439
3.73288,498365
3.73722,788362
3.74155,732336
3.74588,414733
3.75022,180968
3.75455,85688
3.75888,58681
3.76322,53100
3.76757,50564
3.7719,49459
3.77623,46222
3.78057,45870
3.7849,45496
3.78923,46308
3.79357,46425
3.7979,45709
3.80225,45347
3.80658,45777
3.81092,45009
3.81525,44521
3.81958,44806
3.82392,44101
3.82825,43277
3.83258,45395
3.83693,44842
3.84127,43084
3.8456,45076
3.84993,44317
3.85427,44519
3.8586,44729
3.86293,45226
3.86727,45538
3.8716,45772
3.87595,45370
3.88028,45513
3.88462,44136
3.88895,45085
3.89328,43073
3.89762,44913
3.90195,45390
3.90628,43791
3.91063,44584
3.91497,45742
3.9193,44651
3.92363,45124
3.92797,42780
3.9323,45270
3.93663,44658
3.94097,43488
3.9453,44584
3.94965,44502
3.95398,44015
3.95832,43645
3.96265,44760
3.96698,44540
3.97132,45191
3.97565,43092
3.97998,45440
3.98433,42891
3.98867,45098
3.993,43774
3.99733,45414
4.00167,43741
4.006,43742
4.01033,45641
4.01467,53866
4.019,106293
4.02335,267476
4.02768,442183
4.03202,433716
4.03635,278932
4.04068,135453
4.04502,76984
4.04935,68486
4.05368,85085
4.05803,82945
4.06237,65435
4.0667,52186
4.07103,47466
4.07537,45655
4.0797,44856
4.08403,46008
4.08837,44680
4.0927,47714
4.09705,110445
4.10138,646243
4.10572,2530691
4.11005,5151245
4.11438,5745723
4.11872,3700807
4.12305,1446705
4.12738,388393
4.13173,117653
4.13607,65630
4.1404,55834
4.14473,52274
4.14907,49495
4.1534,47653
4.15773,48821
4.16207,48631
4.1664,47289
4.17075,47212
4.17508,47010
4.17942,46749
4.18375,46045
4.18808,46006
4.19242,47491
4.19675,45241
4.20108,46063
4.20543,48117
4.20977,55299
4.2141,71192
4.21843,174658
4.22277,801642
4.2271,2574765
4.23143,4511516
4.23577,4446231
4.24012,2596703
4.24445,944560
4.24878,259104
4.25312,91810
4.25745,60092
4.26178,51903
4.26612,50594
4.27045,50354
4.27478,50244
4.27913,51220
4.28347,51014
4.2878,47685
4.29213,46454
4.29647,47051
4.3008,46329
4.30513,45625
4.30947,45213
4.31382,44304
4.31815,45100
4.32248,46330
4.32682,46100
4.33115,44882
4.33548,46357
4.33982,46156
4.34415,45797
4.34848,45588
4.35283,44993
4.35717,47531
4.3615,46367
4.36583,46592
4.37017,45398
4.3745,46156
4.37883,45786
4.38317,46947
4.38752,49256
4.39185,61505
4.39618,94530
4.40052,136782
4.40485,154354
4.40918,118606
4.41352,77409
4.41785,62907
4.42218,116468
4.42653,663420
4.43087,2963864
4.4352,7223478
4.43953,10081366
4.44387,8547578
4.4482,4065502
4.45253,1032683
4.45687,222944
4.46122,88136
4.46555,68784
4.46988,62375
4.47422,61106
4.47855,58828
4.48288,54964
4.48722,55405
4.49155,72992
4.49588,157159
4.50023,293239
4.50457,306290
4.5089,197432
4.51323,115517
4.51757,79990
4.5219,68603
4.52623,62627
4.53057,59257
4.53492,55926
4.53925,54891
4.54358,54820
4.54792,52425
4.55225,52594
4.55658,49482
4.56092,51867
4.56525,50677
4.56958,50264
4.57393,48869
4.57827,48605
4.5826,47580
4.58693,47296
4.59127,49322
4.5956,48962
4.59993,49253
4.60427,48195
4.60862,49267
4.61295,50272
4.61728,57761
4.62162,63016
4.62595,65571
4.63028,60348
4.63462,52693
4.63895,50630
4.6433,49140
4.64763,50509
4.65197,74167
4.6563,292284
4.66063,1254058
4.66497,2880820
4.6693,3309784
4.67363,2088094
4.67797,766229
4.68232,206368
4.68665,81630
4.69098,59156
4.69532,56078
4.69965,54313
4.70398,57361
4.70832,59393
4.71265,60462
4.717,58858
4.72133,52442
4.72567,48844
4.73,50210
4.73433,46035
4.73867,49395
4.743,50670
4.74733,52821
4.75167,60382
4.75602,121915
4.76035,316019
4.76468,488417
4.76902,371614
4.77335,205629
4.77768,370334
4.78202,1704343
4.78635,4198730
4.7907,5389640
4.79503,4134031
4.79937,2424479
4.8037,1548227
4.80803,786092
4.81237,279984
4.8167,115928
4.82103,79510
4.82537,71534
4.82972,77779
4.83405,82358
4.83838,86304
4.84272,84688
4.84705,77597
4.85138,77108
4.85572,71677
4.86005,63960
4.8644,61463
4.86873,58312
4.87307,55195
4.8774,53316
4.88173,52518
4.88607,51214
4.8904,50128
4.89473,49845
4.89907,48738
4.90342,48833
4.90775,49792
4.91208,50818
4.91642,50922
4.92075,54315
4.92508,53984
4.92942,52318
4.93375,51340
4.9381,50695
4.94243,51348
4.94677,49574
4.9511,51198
4.95543,50280
4.95977,52081
4.9641,50584
4.96843,48811
4.97277,49717
4.97712,49503
4.98145,49735
4.98578,52048
4.99012,61650
4.99445,74820
4.99878,72998
5.00312,62305
5.00745,53131
5.0118,51296
5.01613,51944
5.02047,48682
5.0248,48556
5.02913,47908
5.03347,48425
5.0378,46086
5.04213,45886
5.04648,46779
5.05082,47801
5.05515,46806
5.05948,45641
5.06382,47301
5.06815,51205
5.07248,61177
5.07682,74202
5.08115,69186
5.0855,60143
5.08983,55634
5.09417,51416
5.0985,51709
5.10283,53789
5.10717,55614
5.1115,52279
5.11583,50414
5.12018,49190
5.12452,49008
5.12885,49906
5.13318,47847
5.13752,46538
5.14185,49619
5.14618,46217
5.15052,46932
5.15485,44163
5.1592,45804
5.16353,43458
5.16787,47150
5.1722,50137
5.17653,55728
5.18087,58224
5.1852,92261
5.18953,184664
5.19388,260754
5.19822,223189
5.20255,144153
5.20688,221563
5.21122,828524
5.21555,1819565
5.21988,2059432
5.22422,1358835
5.22855,595489
5.2329,238615
5.23723,163993
5.24157,208745
5.2459,237972
5.25023,196062
5.25457,143221
5.2589,113408
5.26323,101929
5.26758,98524
5.27192,87441
5.27625,81927
5.28058,77119
5.28492,78790
5.28925,73194
5.29358,68619
5.29792,63221
5.30225,58508
5.3066,60317
5.31093,57750
5.31527,56779
5.3196,56830
5.32393,57528
5.32827,59446
5.3326,54647
5.33693,51361
5.34128,51803
5.34562,50371
5.34995,52173
5.35428,60353
5.35862,63477
5.36295,59011
5.36728,55430
5.37162,61359
5.37595,109189
5.3803,226874
5.38463,318545
5.38897,274973
5.3933,169751
5.39763,95676
5.40197,71741
5.4063,62588
5.41063,57932
5.41498,56874
5.41932,56549
5.42365,58957
5.42798,62497
5.43232,71790
5.43665,79397
5.44098,85054
5.44532,105301
5.44965,112416
5.454,96760
5.45833,78714
5.46267,63163
5.467,57317
5.47133,55061
5.47567,52201
5.48,49683
5.48433,49084
5.48868,50021
5.49302,50309
5.49735,54063
5.50168,54502
5.50602,52006
5.51035,53526
5.51468,55491
5.51902,55550
5.52337,60557
5.5277,61837
5.53203,65837
5.53637,62304
5.5407,60648
5.54503,63400
5.54937,62951
5.5537,65861
5.55803,79852
5.56238,113564
5.56672,135594
5.57105,118273
5.57538,97922
5.57972,87460
5.58405,87935
5.58838,171693
5.59272,477612
5.59707,869997
5.6014,842547
5.60573,500981
5.61007,221588
5.6144,134388
5.61873,250454
5.62307,532703
5.6274,727503
5.63173,598120
5.63608,317588
5.64042,147567
5.64475,85013
5.64908,65877
5.65342,61679
5.65775,64297
5.66208,63441
5.66642,64225
5.67077,57226
5.6751,58861
5.67943,58451
5.68377,59380
5.6881,60698
5.69243,61520
5.69677,64143
5.7011,61889
5.70543,61656
5.70978,60052
5.71412,63429
5.71845,66183
5.72278,80170
5.72712,132171
5.73145,188836
5.73578,182586
5.74012,130690
5.74447,89495
5.7488,69287
5.75313,61642
5.75747,57687
5.7618,52138
5.76613,48971
5.77047,53283
5.7748,74716
5.77913,132308
5.78348,188857
5.78782,185059
5.79215,137420
5.79648,92116
5.80082,70349
5.80515,61751
5.80948,56516
5.81382,54573
5.81817,53789
5.8225,53623
5.82683,62917
5.83117,74254
5.8355,78995
5.83983,75163
5.84417,71950
5.8485,85978
5.85283,124686
5.85718,189916
5.86152,232794
5.86585,189757
5.87018,136688
5.87452,102102
5.87885,81002
5.88318,73038
5.88752,71036
5.89187,66655
5.8962,64515
5.90053,61855
5.90487,62546
5.9092,71134
5.91353,85440
5.91787,96660
5.9222,102594
5.92655,85895
5.93088,67387
5.93522,59189
5.93955,60052
5.94388,62488
5.94822,62307
5.95255,61135
5.95688,56790
5.96122,56697
5.96557,54082
5.9699,54191
5.97423,53398
5.97857,51491
5.9829,49317
5.98723,50692
5.99157,51812
5.9959,51735
6.00025,50342
6.00458,51147
6.00892,55859
6.01325,74637
6.01758,96545
6.02192,102056
6.02625,82260
6.03058,62904
6.03492,53252
6.03927,54452
6.0436,54448
6.04793,55800
6.05227,55836
6.0566,54510
6.06093,54415
6.06527,53065
6.0696,53187
6.07395,56651
6.07828,58481
6.08262,58996
6.08695,61840
6.09128,58515
6.09562,52631
6.09995,49428
6.10428,47941
6.10862,49399
6.11297,49670
6.1173,48355
6.12163,47285
6.12597,48853
6.1303,49971
6.13463,51173
6.13897,53179
6.1433,52919
6.14765,49334
6.15198,46155
6.15632,46842
6.16065,47477
6.16498,48856
6.16932,50735
6.17365,49929
6.17798,52251
6.18232,49298
6.18667,54310
6.191,58786
6.19533,59914
6.19967,54679
6.204,51453
6.20833,50705
6.21267,48727
6.217,49118
6.22135,46771
6.22568,46924
6.23002,47657
6.23435,49027
6.23868,78993
6.24302,216924
6.24735,440728
6.25168,477431
6.25602,326051
6.26037,195030
6.2647,130529
6.26903,98662
6.27337,77921
6.2777,67809
6.28203,63239
6.28637,59632
6.2907,55552
6.29505,55703
6.29938,53332
6.30372,51778
6.30805,53725
6.31238,54954
6.31672,60829
6.32105,59920
6.32538,56626
6.32973,50905
6.33407,50202
6.3384,49438
6.34273,49318
6.34707,50604
6.3514,50249
6.35573,52688
6.36007,54262
6.3644,50706
6.36875,54931
6.37308,57361
6.37742,55965
6.38175,62301
6.38608,66317
6.39042,189460
6.39475,1197343
6.39908,4808883
6.40343,11376112
6.40777,16361095
6.4121,14768883
6.41643,6580278
6.42077,1186945
6.4251,236385
6.42943,138294
6.43377,109899
6.4381,94979
6.44245,84741
6.44678,74920
6.45112,70003
6.45545,68088
6.45978,67709
6.46412,68466
6.46845,68012
6.47278,71125
6.47713,69988
6.48147,71504
6.4858,66342
6.49013,61749
6.49447,56211
6.4988,55714
6.50313,54645
6.50747,54805
6.5118,53819
6.51615,51567
6.52048,52459
6.52482,51541
6.52915,50802
6.53348,50419
6.53782,50533
6.54215,51816
6.54648,53495
6.55083,49151
6.55517,49990
6.5595,50794
6.56383,48544
6.56817,50155
6.5725,50527
6.57683,46775
6.58117,46761
6.5855,49046
6.58985,47658
6.59418,47610
6.59852,48299
6.60285,48292
6.60718,50527
6.61152,52959
6.61585,57682
6.62018,63557
6.62453,62840
6.62887,59372
6.6332,57606
6.63753,60975
6.64187,61809
6.6462,68371
6.65053,66850
6.65487,60990
6.6592,58019
6.66355,53977
6.66788,53609
6.67222,50228
6.67655,50530
6.68088,51168
6.68522,49474
6.68955,49174
6.69388,50046
6.69823,47564
6.70257,47201
6.7069,49253
6.71123,47752
6.71557,48292
6.7199,48322
6.72423,48643
6.72857,50939
6.73292,52126
6.73725,63308
6.74158,89926
6.74592,107682
6.75025,96006
6.75458,72060
6.75892,55644
6.76325,49043
6.76758,47243
6.77193,45528
6.77627,46172
6.7806,46612
6.78493,48088
6.78927,47657
6.7936,56562
6.79793,81252
6.80227,120441
6.80662,137183
6.81095,105047
6.81528,67507
6.81962,52717
6.82395,45004
6.82828,49141
6.83262,51438
6.83695,50793
6.84128,48147
6.84563,48258
6.84997,47959
6.8543,48048
6.85863,48886
6.86297,48562
6.8673,46758
6.87163,48339
6.87597,50180
6.88032,51876
6.88465,54834
6.88898,66574
6.89332,77568
6.89765,80749
6.90198,71748
6.90632,61986
6.91065,56547
6.91498,55456
6.91933,54184
6.92367,51779
6.928,52177
6.93233,59948
6.93667,63547
6.941,63691
6.94533,61608
6.94967,50613
6.95402,48913
6.95835,48418
6.96268,46832
6.96702,48966
6.97135,47894
6.97568,47452
6.98002,51619
6.98435,52557
6.98868,52021
6.99303,49159
6.99737,47843
7.0017,45529
7.00603,46255
7.01037,47538
7.0147,60229
7.01903,72888
7.02337,84526
7.02772,74228
7.03205,57046
7.03638,50189
7.04072,49638
7.04505,46767
7.04938,45709
7.05372,46867
7.05805,44917
7.06238,46537
7.06673,49494
7.07107,56217
7.0754,58484
7.07973,66297
7.08407,71053
7.0884,68019
7.09273,60257
7.09707,51894
7.10142,51230
7.10575,49856
7.11008,49422
7.11442,51712
7.11875,75140
7.12308,166152
7.12742,355376
7.13175,500985
7.1361,415826
7.14043,209672
7.14477,92376
7.1491,56805
7.15343,52161
7.15777,54941
7.1621,54538
7.16643,63764
7.17077,94792
7.17512,163045
7.17945,196526
7.18378,151734
7.18812,86666
7.19245,59479
7.19678,56133
7.20112,59230
7.20545,58104
7.2098,52219
7.21413,49398
7.21847,49377
7.2228,45598
7.22713,45878
7.23147,43649
7.2358,45485
7.24013,46275
7.24447,47106
7.24882,49991
7.25315,61999
7.25748,69956
7.26182,69056
7.26615,61927
7.27048,51541
7.27482,49325
7.27915,46544
7.2835,46533
7.28783,46109
7.29217,45632
7.2965,44762
7.30083,43187
7.30517,45655
7.3095,45351
7.31383,48304
7.31817,47884
7.32252,47879
7.32685,46267
7.33118,46126
7.33552,47722
7.33985,49806
7.34418,55011
7.34852,74047
7.35285,106400
7.3572,122432
7.36153,102233
7.36587,74358
7.3702,62976
7.37453,62240
7.37887,57422
7.3832,53713
7.38753,48671
7.39187,48500
7.39622,49460
7.40055,48131
7.40488,48391
7.40922,49122
7.41355,49614
7.41788,50189
7.42222,46849
7.42655,49426
7.4309,49763
7.43523,51461
7.43957,52872
7.4439,52087
7.44823,50799
7.45257,48640
7.4569,50512
7.46123,52658
7.46557,53787
7.46992,57880
7.47425,55350
7.47858,48086
7.48292,53023
7.48725,55313
7.49158,52011
7.49592,54783
7.50025,62992
7.5046,78050
7.50893,77359
7.51327,68632
7.5176,56508
7.52193,54139
7.52627,52813
7.5306,49877
7.53493,46806
7.53927,47392
7.54362,62094
7.54795,126502
7.55228,228079
7.55662,257911
7.56095,177849
7.56528,99811
7.56962,68243
7.57395,56916
7.5783,52091
7.58263,52533
7.58697,60550
7.5913,67639
7.59563,70552
7.59997,59835
7.6043,52550
7.60863,51730
7.61298,48921
7.61732,49065
7.62165,55662
7.62598,54698
7.63032,55519
7.63465,58563
7.63898,59621
7.64332,58514
7.64765,52075
7.652,48647
7.65633,52204
7.66067,56629
7.665,60995
7.66933,60499
7.67367,51530
7.678,48866
7.68233,49509
7.68668,49890
7.69102,50985
7.69535,48146
7.69968,48062
7.70402,49350
7.70835,50090
7.71268,57905
7.71702,60714
7.72135,58713
7.7257,53940
7.73003,46758
7.73437,47352
7.7387,47187
7.74303,47518
7.74737,48628
7.7517,47122
7.75603,47973
7.76038,46916
7.76472,47424
7.76905,47583
7.77338,49547
7.77772,46296
7.78205,45852
7.78638,47214
7.79072,47159
7.79505,48948
7.7994,50869
7.80373,52962
7.80807,50900
7.8124,49814
7.81673,49130
7.82107,48894
7.8254,47636
7.82973,48298
7.83408,48363
7.83842,49197
7.84275,47167
7.84708,46313
7.85142,45805
7.85575,45888
7.86008,45010
7.86442,45421
7.86875,49203
7.8731,46750
7.87743,46278
7.88177,44173
7.8861,46040
7.89043,46221
7.89477,47696
7.8991,46727
7.90343,48461
7.90778,47822
7.91212,44808
7.91645,46092
7.92078,47220
7.92512,45681
7.92945,46086
7.93378,45574
7.93812,46666
7.94245,44098
7.9468,44372
7.95113,47176
7.95547,46133
7.9598,47561
7.96413,47173
7.96847,45329
7.9728,46063
7.97713,45994
7.98148,45456
7.98582,44500
7.99015,45743
7.99448,44531
7.99882,45823
8.00315,46872
8.00748,46032
8.01182,48434
8.01617,51749
8.0205,56278
8.02483,53621
8.02917,48151
8.0335,45644
8.03783,45576
8.04217,47000
8.0465,46257
8.05083,45602
8.05518,46443
8.05952,45533
8.06385,47036
8.06818,45251
8.07252,46078
8.07685,45364
8.08118,44844
8.08552,46057
8.08987,44623
8.0942,45981
8.09853,46391
8.10287,45110
8.1072,45970
8.11153,47254
8.11587,48340
8.1202,44044
8.12453,47847
8.12888,47000
8.13322,49803
8.13755,52152
8.14188,54538
8.14622,54429
8.15055,52247
8.15488,48209
8.15922,48152
8.16357,47291
8.1679,46812
8.17223,47187
8.17657,48212
8.1809,46089
8.18523,46114
8.18957,46392
8.1939,45042
8.19823,45343
8.20258,47103
8.20692,45776
8.21125,46085
8.21558,46274
8.21992,46878
8.22425,50252
8.22858,53841
8.23292,53324
8.23727,52004
8.2416,51344
8.24593,47924
8.25027,49714
8.2546,47796
8.25893,45602
8.26327,46601
8.2676,47643
8.27193,45679
8.27628,46640
8.28062,44608
8.28495,46265
8.28928,45237
8.29362,46053
8.29795,45386
8.30228,46557
8.30662,46185
8.31097,47591
8.3153,47291
8.31963,48664
8.32397,49131
8.3283,49617
8.33263,49370
8.33697,49064
8.3413,47130
8.34563,48008
8.34998,48038
8.35432,45945
8.35865,46459
8.36298,47164
8.36732,44710
8.37165,47758
8.37598,47383
8.38032,46388
8.38467,46034
8.389,46440
8.39333,47261
8.39767,48630
8.402,46844
8.40633,46767
8.41067,46830
8.415,47196
8.41935,47380
8.42368,46855
8.42802,47455
8.43235,45923
8.43668,45920
8.44102,47266
8.44535,45412
8.44968,45350
8.45402,46156
8.45837,46654
8.4627,45645
8.46703,46888
8.47137,45279
8.4757,45693
8.48003,46114
8.48437,45231
8.4887,46074
8.49305,44178
8.49738,46265
8.50172,44691
8.50605,44926
8.51038,45755
8.51472,45001
8.51905,46159
8.52338,45116
8.52772,45494
8.53207,46573
8.5364,45802
8.54073,46558
8.54507,46716
8.5494,46113
8.55373,45477
8.55807,46597
8.5624,47679
8.56675,45158
8.57108,45610
8.57542,45606
8.57975,45156
8.58408,45960
8.58842,43665
8.59275,45775
8.59708,47023
8.60142,46144
8.60577,47937
8.6101,46044
8.61443,49847
8.61877,52451
8.6231,49925
8.62743,49831
8.63177,47028
8.6361,46952
8.64045,48114
8.64478,47259
8.64912,46988
8.65345,48228
8.65778,44992
8.66212,47080
8.66645,47594
8.67078,45344
8.67512,47882
8.67947,44825
8.6838,45486
8.68813,46109
8.69247,46312
8.6968,45640
8.70113,46739
8.70547,47609
8.7098,46911
8.71415,45573
8.71848,46277
8.72282,46219
8.72715,47302
8.73148,45453
8.73582,46486
8.74015,47310
8.74448,46496
8.74882,45839
8.75317,44411
8.7575,47531
8.76183,47335
8.76617,45473
8.7705,45374
8.77483,46761
8.77917,46206
8.7835,44544
8.78785,47759
8.79218,46428
8.79652,45642
8.80085,48299
8.80518,46425
8.80952,46035
8.81385,47109
8.81818,46249
8.82253,46181
8.82687,48027
8.8312,47224
8.83553,47819
8.83987,46821
8.8442,46915
8.84853,46779
8.85287,47145
8.8572,46837
8.86155,47910
8.86588,48991
8.87022,48626
8.87455,46064
8.87888,46601
8.88322,48034
8.88755,46930
8.89188,47063
8.89623,45378
8.90057,47401
8.9049,45980
8.90923,46285
8.91357,46711
8.9179,47085
8.92223,47744
8.92657,47761
8.9309,47457
8.93525,47381
8.93958,46523
8.94392,47324
8.94825,47067
8.95258,48265
8.95692,47075
8.96125,46413
8.96558,46511
8.96993,47677
8.97427,48756
8.9786,46278
8.98293,47309
8.98727,46802
8.9916,47374
8.99593,47079
9.00027,48375
9.0046,48420
9.00895,47195
9.01328,46790
9.01762,45724
9.02195,46182
9.02628,46351
9.03062,45689
9.03495,48874
9.03928,48770
9.04363,49546
9.04797,46142
9.0523,48494
9.05663,45085
9.06097,46637
9.0653,46299
9.06963,48504
9.07397,48742
9.0783,49453
9.08265,49929
9.08698,47934
9.09132,47412
9.09565,46960
9.09998,47627
9.10432,47817
9.10865,47641
9.11298,49061
9.11733,46702
9.12167,48129
9.126,48896
9.13033,47063
9.13467,47663
9.139,48996
9.14333,48602
9.14767,46961
9.152,48299
9.15635,47844
9.16068,46620
9.16502,48048
9.16935,46876
9.17368,46556
9.17802,49530
9.18235,47113
9.18668,48450
9.19103,48321
9.19537,49404
9.1997,49757
9.20403,48481
9.20837,48911
9.2127,50385
9.21703,49958
9.22137,48388
9.22572,48912
9.23005,48106
9.23438,48092
9.23872,47993
9.24305,49812
9.24738,48888
9.25172,48044
9.25605,47848
9.26038,49244
9.26473,50919
9.26907,50633
9.2734,50029
9.27773,48739
9.28207,49588
9.2864,47726
9.29073,46836
9.29507,48638
9.29942,50566
9.30375,50841
9.30808,50320
9.31242,52831
9.31675,51890
9.32108,49777
9.32542,50744
9.32975,48654
9.33408,51048
9.33843,50380
9.34277,49183
9.3471,50656
9.35143,49298
9.35577,50915
9.3601,49301
9.36443,49959
9.36877,49007
9.37312,49122
9.37745,50072
9.38178,48714
9.38612,48735
9.39045,46598
9.39478,49697
9.39912,48996
9.40345,50804
9.40778,49852
9.41213,49270
9.41647,48781
9.4208,48031
9.42513,50530
9.42947,49089
9.4338,50093
9.43813,48054
9.44247,48814
9.44682,51139
9.45115,49771
9.45548,48049
9.45982,49724
9.46415,48669
9.46848,48560
9.47282,50473
9.47715,50958
9.48148,51496
9.48583,47413
9.49017,49296
9.4945,49704
9.49883,49969
9.50317,51360
9.5075,50331
9.51183,49185
9.51617,51865
9.52052,50476
9.52485,49740
9.52918,51038
9.53352,48344
9.53785,49141
9.54218,50577
9.54652,54136
9.55085,55615
9.55518,52640
9.55953,52126
9.56387,50660
9.5682,52359
9.57253,51817
9.57687,52315
9.5812,53622
9.58553,51531
9.58987,53322
9.59422,53093
9.59855,51220
9.60288,53419
9.60722,50516
9.61155,51164
9.61588,53360
9.62022,51591
9.62455,51203
9.6289,49368
9.63323,50656
9.63757,52694
9.6419,50319
9.64623,50762
9.65057,50347
9.6549,49415
9.65923,50791
9.66357,49739
9.66792,50562
9.67225,51457
9.67658,50728
9.68092,54732
9.68525,51350
9.68958,52207
9.69392,51419
9.69825,50429
9.7026,50471
9.70693,50562
9.71127,50728
9.7156,51279
9.71993,51012
9.72427,49936
9.7286,50097
9.73293,52019
9.73727,52285
9.74162,51311
9.74595,52058
9.75028,52535
9.75462,51996
9.75895,52366
9.76328,51893
9.76762,50482
9.77195,50457
9.7763,48985
9.78063,52683
9.78497,54837
9.7893,57826
9.79363,56457
9.79797,55382
9.8023,53255
9.80663,53464
9.81097,52593
9.81532,52197
9.81965,50725
9.82398,51052
9.82832,51595
9.83265,52662
9.83698,52837
9.84132,49730
9.84565,51210
9.85,50022
9.85433,49998
9.85867,50745
9.863,52392
9.86733,52291
9.87167,54585
9.876,53370
9.88033,49334
9.88467,51156
9.88902,49224
9.89335,51358
9.89768,51277
9.90202,50627
9.90635,51146
9.91068,51072
9.91502,52055
9.91935,50647
9.9237,49175
9.92803,51172
9.93237,52327
9.9367,50999
9.94103,51131
9.94537,51803
9.9497,52319
9.95403,50434
9.95837,53086
9.96272,50911
9.96705,52676
9.97138,51628
9.97572,52324
9.98005,51594
9.98438,52644
9.98872,51097
9.99305,51670
9.9974,51462
10.0017,50511
10.0061,52282
10.0104,52219
10.0147,51450
10.0191,51001
10.0234,51869
10.0277,49921
10.0321,50341
10.0364,52575
10.0408,50957
10.0451,50074
10.0494,49452
10.0538,51208
10.0581,50400
10.0624,50840
10.0668,51784
10.0711,51503
10.0754,50167
10.0798,50816
10.0841,49632
10.0884,51464
10.0928,52156
10.0971,52251
10.1014,51554
10.1058,51363
10.1101,51412
10.1145,51254
10.1188,51769
10.1231,52286
10.1275,52121
10.1318,52931
10.1361,53697
10.1405,51143
10.1448,51215
10.1491,51987
10.1535,51337
10.1578,52471
10.1621,53632
10.1665,52587
10.1708,52393
10.1751,51769
10.1795,52144
10.1838,51622
10.1882,52507
10.1925,53023
10.1968,52065
10.2012,50986
10.2055,52119
10.2098,51960
10.2142,54374
10.2185,53035
10.2228,53121
10.2272,52981
10.2315,52974
10.2358,51357
10.2402,52593
10.2445,53370
10.2488,54009
10.2532,51355
10.2575,53621
10.2619,51892
10.2662,53941
10.2705,52308
10.2749,54475
10.2792,54156
10.2835,54485
10.2879,54598
10.2922,53749
10.2965,53913
10.3009,54785
10.3052,54598
10.3095,53247
10.3139,56644
10.3182,53998
10.3225,55537
10.3269,57394
10.3312,53859
10.3356,55093
10.3399,53860
10.3442,55184
10.3486,55467
10.3529,53352
10.3572,52537
10.3616,53449
10.3659,52216
10.3702,53278
10.3746,52311
10.3789,52878
10.3832,55333
10.3876,53695
10.3919,54428
10.3962,53410
10.4006,53064
10.4049,52913
10.4093,53290
10.4136,53465
10.4179,52730
10.4223,53723
10.4266,54080
10.4309,54131
10.4353,52773
10.4396,54759
10.4439,53766
10.4483,54457
10.4526,52988
10.4569,54701
10.4613,53923
10.4656,54429
10.4699,53420
10.4743,55229
10.4786,52042
10.483,54470
10.4873,53227
10.4916,53472
10.496,53933
10.5003,55915
10.5046,54946
10.509,54628
10.5133,56027
10.5176,53301
10.522,53511
10.5263,52395
10.5306,53434
10.535,54617
10.5393,54934
10.5436,54134
10.548,53253
10.5523,53756
10.5567,54290
10.561,54095
10.5653,53167
10.5697,53773
10.574,52525
10.5783,54135
10.5827,53841
10.587,52049
10.5913,54507
10.5957,56345
10.6,53473
10.6043,52065
10.6087,53738
10.613,53405
10.6173,53852
10.6217,54680
10.626,53525
10.6304,54700
10.6347,53530
10.639,55087
10.6434,54397
10.6477,55317
10.652,55603
10.6564,54757
10.6607,54175
10.665,55786
10.6694,55374
10.6737,55034
10.678,55143
10.6824,54342
10.6867,54602
10.691,53933
10.6954,56628
10.6997,53829
10.7041,53161
10.7084,55177
10.7127,54013
10.7171,54965
10.7214,54918
10.7257,56125
10.7301,56182
10.7344,55361
10.7387,55126
10.7431,54408
10.7474,55170
10.7517,54621
10.7561,55962
10.7604,55700
10.7647,56238
10.7691,54478
10.7734,55320
10.7778,57121
10.7821,55992
10.7864,55981
10.7908,56106
10.7951,54861
10.7994,55260
10.8038,54680
10.8081,55143
10.8124,56736
10.8168,56217
10.8211,55664
10.8254,56206
10.8298,54457
10.8341,57826
10.8384,57225
10.8428,56467
10.8471,55462
10.8515,56954
10.8558,57527
10.8601,57716
10.8645,54998
10.8688,56383
10.8731,56358
10.8775,56461
10.8818,57317
10.8861,57437
10.8905,55982
10.8948,57024
10.8991,56821
10.9035,57423
10.9078,55731
10.9122,55887
10.9165,57060
10.9208,56937
10.9252,56684
10.9295,56321
10.9338,57740
10.9382,58689
10.9425,57823
10.9468,56370
10.9512,56168
10.9555,59893
10.9598,58495
10.9642,57739
10.9685,57364
10.9728,58575
10.9772,58394
10.9815,57705
10.9859,58760
10.9902,59664
10.9945,60108
10.9989,58569
11.0032,59292
11.0075,57521
11.0119,57326
11.0162,58893
11.0205,59418
11.0249,59659
11.0292,58341
11.0335,58564
11.0379,60544
11.0422,58582
11.0465,56917
11.0509,59874
11.0552,59547
11.0596,59885
11.0639,59043
11.0682,57384
11.0726,57810
11.0769,58694
11.0812,58451
11.0856,61077
11.0899,60895
11.0942,57912
11.0986,60498
11.1029,59678
11.1072,60193
11.1116,59799
11.1159,60786
11.1202,59988
11.1246,59774
11.1289,60854
11.1333,60330
11.1376,58965
11.1419,60221
11.1463,59981
11.1506,58944
11.1549,59332
11.1593,61333
11.1636,60568
11.1679,61239
11.1723,59650
11.1766,60883
11.1809,61759
11.1853,62736
11.1896,60232
11.1939,61499
11.1983,61052
11.2026,60316
11.207,61295
11.2113,59994
11.2156,61337
11.22,60653
11.2243,59391
11.2286,62656
11.233,63142
11.2373,61124
11.2416,62767
11.246,61292
11.2503,62867
11.2546,61456
11.259,60850
11.2633,60852
11.2676,61788
11.272,62154
11.2763,60694
11.2807,60570
11.285,63299
11.2893,62243
11.2937,63467
11.298,62417
11.3023,64892
11.3067,63038
11.311,63511
11.3153,63556
11.3197,64275
11.324,64991
11.3283,64197
11.3327,63664
11.337,64593
11.3413,64129
11.3457,62545
11.35,63406
11.3544,63041
11.3587,62348
11.363,63723
11.3674,64337
11.3717,64115
11.376,64683
11.3804,65714
11.3847,66411
11.389,64069
11.3934,65452
11.3977,63927
11.402,64967
11.4064,64405
11.4107,65580
11.415,64340
11.4194,66898
11.4237,66894
11.4281,64829
11.4324,65478
11.4367,64368
11.4411,66695
11.4454,66974
11.4497,66944
11.4541,63958
11.4584,66244
11.4627,64872
11.4671,67982
11.4714,67012
11.4757,66358
11.4801,66678
11.4844,67396
11.4887,68272
11.4931,65478
11.4974,66100
11.5018,67573
11.5061,67682
11.5104,68571
11.5148,66899
11.5191,66191
11.5234,66906
11.5278,66872
11.5321,70107
11.5364,66397
11.5408,69161
11.5451,68632
11.5494,69728
11.5538,70275
11.5581,69524
11.5624,69730
11.5668,70381
11.5711,69973
11.5755,68801
11.5798,70689
11.5841,69446
11.5885,70066
11.5928,69982
11.5971,70113
11.6015,70578
11.6058,69112
11.6101,69625
11.6145,67717
11.6188,70341
11.6231,71592
11.6275,69822
11.6318,71278
11.6361,70235
11.6405,71659
11.6448,70097
11.6492,72102
11.6535,71261
11.6578,71569
11.6622,73062
11.6665,72162
11.6708,72378
11.6752,73812
11.6795,73757
11.6838,74252
11.6882,73417
11.6925,72009
11.6968,71780
11.7012,72941
11.7055,74228
11.7098,73531
11.7142,74367
11.7185,73738
11.7229,73629
11.7272,74191
11.7315,75937
11.7359,74007
11.7402,75676
11.7445,73974
11.7489,73358
11.7532,74281
11.7575,74332
11.7619,72397
11.7662,75339
11.7705,75499
11.7749,75348
11.7792,74664
11.7835,74623
11.7879,74162
11.7922,75711
11.7966,77052
11.8009,77285
11.8052,73838
11.8096,76657
11.8139,76446
11.8182,75598
11.8226,77642
11.8269,75255
11.8312,78077
11.8356,77526
11.8399,75769
11.8442,76968
11.8486,77623
11.8529,77420
11.8572,79081
11.8616,76435
11.8659,77330
11.8703,77557
11.8746,77453
11.8789,77306
11.8833,77380
11.8876,78064
11.8919,77806
11.8963,75422
11.9006,75796
11.9049,77322
11.9093,78278
11.9136,78836
11.9179,78584
11.9223,76918
11.9266,77284
11.9309,78801
11.9353,78577
11.9396,77226
11.944,78380
11.9483,78421
11.9526,78543
11.957,77823
11.9613,79663
11.9656,77187
11.97,78263
11.9743,78931
11.9786,77133
11.983,79103
11.9873,81813
11.9916,79338
11.996,77393
12.0003,78845
12.0046,81791
12.009,79740
12.0133,82857
12.0177,80306
12.022,78774
12.0263,80098
12.0307,78448
12.035,78821
12.0393,78981
12.0437,79787
12.048,79302
12.0523,80746
12.0567,80838
12.061,79091
12.0653,79421
12.0697,78463
12.074,81355
12.0783,82204
12.0827,81723
12.087,79147
12.0914,82735
12.0957,82359
12.1,80254
12.1044,78576
12.1087,81345
12.113,80903
12.1174,82093
12.1217,82310
12.126,81665
12.1304,80995
12.1347,81781
12.139,82270
12.1434,83093
12.1477,81778
12.152,83310
12.1564,83253
12.1607,80480
12.1651,83187
12.1694,80505
12.1737,81937
12.1781,84323
12.1824,81918
12.1867,85344
12.1911,83198
12.1954,82408
12.1997,84419
12.2041,83766
12.2084,83550
12.2127,84133
12.2171,82310
12.2214,80893
12.2257,83485
12.2301,82320
12.2344,84182
12.2388,82609
12.2431,81655
12.2474,83437
12.2518,84323
12.2561,82543
12.2604,82407
12.2648,83774
12.2691,85705
12.2734,85381
12.2778,83326
12.2821,83400
12.2864,85457
12.2908,84178
12.2951,85892
12.2994,82329
12.3038,84118
12.3081,84065
12.3125,85918
12.3168,83091
12.3211,83282
12.3255,82177
12.3298,84847
12.3341,83674
12.3385,86302
12.3428,86774
12.3471,84567
12.3515,84220
12.3558,85668
12.3601,85536
12.3645,86044
12.3688,85614
12.3731,84388
12.3775,86540
12.3818,85341
12.3862,87654
12.3905,84416
12.3948,85537
12.3992,84950
12.4035,86690
12.4078,86027
12.4122,86152
12.4165,84026
12.4208,86622
12.4252,85465
12.4295,84371
12.4338,84676
12.4382,87223
12.4425,84312
12.4468,83362
12.4512,84285
12.4555,87792
12.4599,84778
12.4642,85753
12.4685,85465
12.4729,87262
12.4772,84221
12.4815,86955
12.4859,86449
12.4902,85975
12.4945,87097
12.4989,87037
12.5032,86832
12.5075,85906
12.5119,84891
12.5162,85409
12.5205,86642
12.5249,87601
12.5292,85247
12.5336,86347
12.5379,85062
12.5422,86437
12.5466,85036
12.5509,86232
12.5552,84482
12.5596,87678
12.5639,87140
12.5682,87926
12.5726,87832
12.5769,84314
12.5812,89309
12.5856,86534
12.5899,86410
12.5942,85090
12.5986,87644
12.6029,89164
12.6073,87047
12.6116,84891
12.6159,88228
12.6203,86917
12.6246,88469
12.6289,87694
12.6333,87477
12.6376,87704
12.6419,86330
12.6463,86350
12.6506,86937
12.6549,87251
12.6593,87208
12.6636,87285
12.6679,86504
12.6723,86713
12.6766,86608
12.681,86639
12.6853,87897
12.6896,87308
12.694,87151
12.6983,86326
12.7026,86112
12.707,85366
12.7113,89077
12.7156,88647
12.72,88353
12.7243,89904
12.7286,89846
12.733,89470
12.7373,90152
12.7416,88286
12.746,86588
12.7503,88179
12.7547,87929
12.759,87839
12.7633,88027
12.7677,89533
12.772,87862
12.7763,86375
12.7807,88290
12.785,87210
12.7893,88523
12.7937,89097
12.798,87889
12.8023,87768
12.8067,87528
12.811,85751
12.8153,86005
12.8197,87425
12.824,87296
12.8284,89211
12.8327,89840
12.837,87356
12.8414,89598
12.8457,86632
12.85,90611
12.8544,87220
12.8587,86934
12.863,87715
12.8674,88006
12.8717,86321
12.876,85030
12.8804,87076
12.8847,87737
12.889,88328
12.8934,86596
12.8977,87224
12.9021,88244
12.9064,85400
12.9107,90180
12.9151,86824
12.9194,89516
12.9237,87783
12.9281,88637
12.9324,89097
12.9367,89857
12.9411,88534
12.9454,86811
12.9497,88610
12.9541,87435
12.9584,89887
12.9627,89836
12.9671,89037
12.9714,87801
12.9758,87321
12.9801,87936
12.9844,89719
12.9888,88149
12.9931,88529
12.9974,85769
13.0018,86352
13.0061,87146
13.0104,87592
13.0148,87160
13.0191,87396
13.0234,86579
13.0278,90305
13.0321,88156
13.0364,87433
13.0408,87223
13.0451,87834
13.0495,87626
13.0538,89570
13.0581,88314
13.0625,90968
13.0668,89017
13.0711,87142
13.0755,86812
13.0798,86432
13.0841,86755
13.0885,88601
13.0928,86531
13.0971,87536
13.1015,86373
13.1058,87573
13.1101,90000
13.1145,88284
13.1188,89438
13.1232,90302
13.1275,87257
13.1318,83718
13.1362,89371
13.1405,89752
13.1448,90023
13.1492,85058
13.1535,91804
13.1578,89951
13.1622,87809
13.1665,86548
13.1708,87825
13.1752,87381
13.1795,87306
13.1838,88421
13.1882,87588
13.1925,87275
13.1969,89807
13.2012,88971
13.2055,89081
13.2099,90175
13.2142,87440
13.2185,85818
13.2229,88307
13.2272,87064
13.2315,88477
13.2359,88760
13.2402,89013
13.2445,87867
13.2489,90736
13.2532,88041
13.2575,87814
13.2619,85796
13.2662,87604
13.2706,87889
13.2749,90194
13.2792,87990
13.2836,87099
13.2879,89183
13.2922,88429
13.2966,88243
13.3009,87225
13.3052,89622
13.3096,87040
13.3139,88064
13.3182,88464
13.3226,89409
13.3269,86906
13.3312,88531
13.3356,86840
13.3399,90099
13.3443,89601
13.3486,88767
13.3529,88612
13.3573,90719
13.3616,87215
13.3659,89603
13.3703,87813
13.3746,89546
13.3789,90588
13.3833,89480
13.3876,89469
13.3919,88781
13.3963,86841
13.4006,89462
13.4049,90436
13.4093,89949
13.4136,89090
13.418,87682
13.4223,89089
13.4266,87543
13.431,89794
13.4353,85524
13.4396,87502
13.444,90043
13.4483,90284
13.4526,87353
13.457,89206
13.4613,87875
13.4656,89742
13.47,88745
13.4743,87610
13.4787,88466
13.483,88979
13.4873,87769
13.4917,88849
13.496,85881
13.5003,91655
13.5047,87919
13.509,88050
13.5133,91820
13.5177,85736
13.522,88657
13.5263,86049
13.5307,89476
13.535,90505
13.5393,89636
13.5437,89619
13.548,88732
13.5524,88718
13.5567,88333
13.561,89707
13.5654,90186
13.5697,90539
13.574,88447
13.5784,89692
13.5827,88006
13.587,88303
13.5914,89433
13.5957,86130
13.6,86409
13.6044,90289
13.6087,90844
13.613,87647
13.6174,86541
13.6217,88429
13.6261,89508
13.6304,85997
13.6347,87899
13.6391,88496
13.6434,87831
13.6477,88060
13.6521,88575
13.6564,88822
13.6607,88916
13.6651,89613
13.6694,88888
13.6737,87139
13.6781,86383
13.6824,88097
13.6867,90154
13.6911,88140
13.6954,87849
13.6998,89017
13.7041,86505
13.7084,89641
13.7128,87050
13.7171,86743
13.7214,88364
13.7258,86931
13.7301,88020
13.7344,88652
13.7388,89827
13.7431,88856
13.7474,90124
13.7518,90044
13.7561,91308
13.7604,87510
13.7648,89502
13.7691,88776
13.7735,88339
13.7778,92014
13.7821,87309
13.7865,88796
13.7908,90722
13.7951,88560
13.7995,88126
13.8038,87304
13.8081,86846
13.8125,89454
13.8168,88572
13.8211,87002
13.8255,87222
13.8298,87323
13.8341,88215
13.8385,88685
13.8428,87050
13.8472,88794
13.8515,88648
13.8558,85698
13.8602,88942
13.8645,89337
13.8688,87385
13.8732,88023
13.8775,88597
13.8818,88295
13.8862,87686
13.8905,87129
13.8948,90744
13.8992,87302
13.9035,89622
13.9078,89124
13.9122,88470
13.9165,89427
13.9209,88190
13.9252,90842
13.9295,90150
13.9339,87476
13.9382,87128
13.9425,87389
13.9469,88559
13.9512,87897
13.9555,86835
13.9599,89560
13.9642,89324
13.9685,88506
13.9729,88689
13.9772,88945
13.9815,87588
13.9859,88877
13.9902,87773
13.9946,88313
13.9989,90200
14.0032,87244
14.0076,87819
14.0119,89558
14.0162,88653
14.0206,89587
14.0249,90893
14.0292,87855
14.0336,86355
14.0379,89148
14.0422,88980
14.0466,89327
14.0509,90010
14.0552,87178
14.0596,88233
14.0639,87188
14.0683,88886
14.0726,87593
14.0769,90297
14.0813,88072
14.0856,88922
14.0899,88690
14.0943,88528
14.0986,91054
14.1029,87217
14.1073,90364
14.1116,87542
14.1159,89692
14.1203,85957
14.1246,89468
14.1289,90177
14.1333,88593
14.1376,88067
14.142,88826
14.1463,87945
14.1506,87496
14.155,88903
14.1593,87123
14.1636,89291
14.168,89813
14.1723,89868
14.1766,89769
14.181,88547
14.1853,86866
14.1896,89160
14.194,89328
14.1983,89148
14.2026,89159
14.207,88574
14.2113,88252
14.2157,86184
14.22,87257
14.2243,90573
14.2287,87784
14.233,87654
14.2373,88554
14.2417,87339
14.246,90611
14.2503,87308
14.2547,87334
14.259,87626
14.2633,89398
14.2677,90616
14.272,87598
14.2763,87827
14.2807,90340
14.285,89708
14.2894,88107
14.2937,89125
14.298,86757
14.3024,88412
14.3067,88100
14.311,89030
14.3154,89408
14.3197,88224
14.324,89334
14.3284,88811
14.3327,87276
14.337,89365
14.3414,87852
14.3457,87224
14.35,89605
14.3544,88630
14.3587,88988
14.3631,88809
14.3674,87381
14.3717,89257
14.3761,90395
14.3804,88944
14.3847,88941
14.3891,89916
14.3934,87355
14.3977,90038
14.4021,87119
14.4064,88270
14.4107,89520
14.4151,87138
14.4194,88150
14.4237,90030
14.4281,90867
14.4324,88137
14.4368,87741
14.4411,88941
14.4454,86417
14.4498,90323
14.4541,90654
14.4584,86540
14.4628,90638
14.4671,89446
14.4714,90987
14.4758,91169
14.4801,86230
14.4844,89694
14.4888,89020
14.4931,88789
14.4974,87634
14.5018,91620
14.5061,89491
14.5105,91173
14.5148,88980
14.5191,89209
14.5235,89039
14.5278,88038
14.5321,87089
14.5365,87799
14.5408,88951
14.5451,88923
14.5495,90531
14.5538,90026
14.5581,87684
14.5625,89426
14.5668,88593
14.5711,88363
14.5755,89445
14.5798,91931
14.5842,86460
14.5885,89062
14.5928,88695
14.5972,90853
14.6015,88359
14.6058,89271
14.6102,86655
14.6145,89231
14.6188,89842
14.6232,88356
14.6275,90310
14.6318,88820
14.6362,86584
14.6405,88613
14.6448,89130
14.6492,87007
14.6535,91610
14.6579,90426
14.6622,90181
14.6665,87617
14.6709,89891
14.6752,90771
14.6795,87944
14.6839,92563
14.6882,88115
14.6925,88916
14.6969,88709
14.7012,86990
14.7055,90559
14.7099,89060
14.7142,85930
14.7185,90749
14.7229,87068
14.7272,88808
14.7316,89148
14.7359,88682
14.7402,86476
14.7446,89637
14.7489,88689
14.7532,88660
14.7576,88480
14.7619,86996
14.7662,91028
14.7706,91910
14.7749,89212
14.7792,90015
14.7836,90755
14.7879,88041
14.7922,88786
14.7966,88895
14.8009,90101
14.8053,86362
14.8096,88287
14.8139,89168
14.8183,88691
14.8226,90337
14.8269,88434
14.8313,88802
14.8356,90131
14.8399,87421
14.8443,90024
14.8486,88322
14.8529,90095
14.8573,88613
14.8616,87104
14.8659,90330
14.8703,88649
14.8746,87763
14.879,90100
14.8833,91396
14.8876,85527
14.892,86911
14.8963,88102
14.9006,88302
14.905,88078
14.9093,90019
14.9136,87410
14.918,87679
14.9223,87633
14.9266,89544
14.931,91830
14.9353,89277
14.9396,90983
14.944,89096
14.9483,89595
14.9527,88081
14.957,89354
14.9613,90544
14.9657,89147
14.97,88892
14.9743,90103
14.9787,89361
14.983,89786
14.9873,89490
14.9917,89597
14.996,88753
15.0003,86476
15.0047,90701
15.009,87128
15.0133,87751
15.0177,88121
15.022,89930
15.0264,87294
15.0307,88118
15.035,91499
15.0394,86739
15.0437,88954
15.048,86059
15.0524,86958
15.0567,88415
15.061,89371
15.0654,90286
15.0697,92763
15.074,86640
15.0784,89579
15.0827,87923
15.087,89218
15.0914,89675
15.0957,91328
15.1001,89940
15.1044,90440
15.1087,90478
15.1131,92008
15.1174,89777
15.1217,87938
15.1261,89208
15.1304,92611
15.1347,89897
15.1391,87186
15.1434,88748
15.1477,91616
15.1521,89596
15.1564,89140
15.1607,88564
15.1651,86879
15.1694,88479
15.1738,89788
15.1781,89098
15.1824,89061
15.1868,89121
15.1911,90330
15.1954,90679
15.1998,88581
15.2041,88375
15.2084,90736
15.2128,90075
15.2171,86182
15.2214,89202
15.2258,89001
15.2301,92766
15.2344,88092
15.2388,87637
15.2431,90420
15.2475,88870
15.2518,88823
15.2561,89356
15.2605,89215
15.2648,90128
15.2691,86092
15.2735,88157
15.2778,86569
15.2821,92069
15.2865,90459
15.2908,90761
15.2951,92233
15.2995,89863
15.3038,87949
15.3081,87545
15.3125,87564
15.3168,90402
15.3212,90336
15.3255,89902
15.3298,88162
15.3342,90642
15.3385,89687
15.3428,89289
15.3472,89672
15.3515,89478
15.3558,89441
15.3602,92507
15.3645,89325
15.3688,91374
15.3732,87705
15.3775,90049
15.3818,88534
15.3862,88603
15.3905,88779
15.3949,88063
15.3992,88037
15.4035,88169
15.4079,89586
15.4122,88670
15.4165,88543
15.4209,86251
15.4252,88929
15.4295,91175
15.4339,88926
15.4382,89530
15.4425,90374
15.4469,87938
15.4512,91947
15.4555,89654
15.4599,86745
15.4642,88684
15.4686,90804
15.4729,88685
15.4772,88784
15.4816,88162
15.4859,89189
15.4902,88567
15.4946,90071
15.4989,88308
15.5032,89661
15.5076,88767
15.5119,88990
15.5162,88215
15.5206,87975
15.5249,87721
15.5292,89698
15.5336,89007
15.5379,87446
15.5423,90258
15.5466,87001
15.5509,86960
15.5553,87703
15.5596,88204
15.5639,89677
15.5683,91129
15.5726,88998
15.5769,91322
15.5813,90797
15.5856,88529
15.5899,89135
15.5943,87786
15.5986,89799
15.6029,89663
15.6073,88562
15.6116,90931
15.616,89744
15.6203,89573
15.6246,89451
15.629,86026
15.6333,89007
15.6376,86364
15.642,89259
15.6463,88227
15.6506,86455
15.655,91945
15.6593,88189
15.6636,86916
15.668,89300
15.6723,87883
15.6766,91442
15.681,88562
15.6853,88448
15.6897,89502
15.694,91204
15.6983,86702
15.7027,90148
15.707,90963
15.7113,87561
15.7157,88562
15.72,90113
15.7243,91839
15.7287,89772
15.733,89931
15.7373,88839
15.7417,90032
15.746,90849
15.7503,91440
15.7547,89371
15.759,88331
15.7634,89852
15.7677,87797
15.772,88857
15.7764,90565
15.7807,88156
15.785,88398
15.7894,89982
15.7937,86596
15.798,88489
15.8024,87306
15.8067,88454
15.811,87920
15.8154,90968
15.8197,88060
15.824,87339
15.8284,89598
15.8327,89534
15.8371,87925
15.8414,87120
15.8457,91177
15.8501,88220
15.8544,88075
15.8587,86994
15.8631,92515
15.8674,88885
15.8717,89752
15.8761,88767
15.8804,90018
15.8847,89620
15.8891,88722
15.8934,91903
15.8977,86555
15.9021,88840
15.9064,89279
15.9108,86478
15.9151,89147
15.9194,89689
15.9238,88636
15.9281,89509
15.9324,91410
15.9368,89217
15.9411,89122
15.9454,88157
15.9498,90421
15.9541,87396
15.9584,90147
15.9628,89412
15.9671,90890
15.9714,88399
15.9758,87668
15.9801,89538
15.9845,91053
15.9888,90216
15.9931,88957
15.9975,89088
16.0018,87003
16.0061,87705
16.0105,87256
16.0148,89908
16.0191,86591
16.0235,88398
16.0278,90726
16.0321,89739
16.0365,87626
16.0408,90002
16.0452,89483
16.0495,88605
16.0538,87889
16.0582,87817
16.0625,88287
16.0668,89634
16.0711,89568
16.0755,87689
16.0798,89642
16.0842,88331
16.0885,90869
16.0928,88460
16.0972,87484
16.1015,89344
16.1058,90242
16.1102,88040
16.1145,89024
16.1188,89230
16.1232,89950
16.1275,88819
16.1319,89137
16.1362,90955
16.1405,91520
16.1449,91880
16.1492,88410
16.1535,87390
16.1579,90137
16.1622,89729
16.1665,91492
16.1709,89725
16.1752,89888
16.1795,87837
16.1839,90151
16.1882,88100
16.1926,90422
16.1969,89214
16.2012,88733
16.2055,90185
16.2099,86938
16.2142,89408
16.2186,87619
16.2229,88713
16.2272,91887
16.2316,90742
16.2359,87036
16.2402,89536
16.2446,89693
16.2489,87542
16.2532,88141
16.2576,88459
16.2619,88955
16.2662,88277
16.2706,89876
16.2749,88768
16.2793,92360
16.2836,89398
16.2879,90118
16.2922,88867
16.2966,92822
16.3009,89981
16.3053,89404
16.3096,89749
16.3139,88471
16.3183,90055
16.3226,91978
16.3269,88789
16.3313,90629
16.3356,92994
16.34,89985
16.3443,89301
16.3486,89846
16.353,89491
16.3573,88713
16.3616,90817
16.366,88776
16.3703,89597
16.3746,89617
16.379,90157
16.3833,87440
16.3876,87442
16.392,89194
16.3963,87882
16.4006,87382
16.405,88694
16.4093,92719
16.4137,89937
16.418,89424
16.4223,88955
16.4266,87938
16.431,88769
16.4353,88730
16.4397,88480
16.444,91324
16.4483,87615
16.4527,85918
16.457,89340
16.4613,89760
16.4657,86411
16.47,89260
16.4743,88402
16.4787,89812
16.483,90613
16.4873,88947
16.4917,88396
16.496,89626
16.5004,89738
16.5047,87695
16.509,91974
16.5133,91257
16.5177,89776
16.522,89353
16.5264,89317
16.5307,87544
16.535,90333
16.5394,90630
16.5437,85730
16.548,89990
16.5524,86446
16.5567,88845
16.5611,89732
16.5654,90662
16.5697,88498
16.5741,87584
16.5784,89531
16.5827,88847
16.5871,87158
16.5914,89129
16.5957,88423
