Created as New Dataset,Sample 004 By CHEM 370 Date Monday, March 02 2020
cm-1,A
4000.0,0.0013
3999.0,0.0013
3998.0,0.0013
3997.0,-0.0007000000000000001
3996.0,-0.0007000000000000001
3995.0,-0.0007000000000000001
3994.0,-0.00020000000000000004
3993.0,0.0003
3992.0,-0.00020000000000000004
3991.0,-0.00020000000000000004
3990.0,0.0003
3989.0,0.0007
3988.0,0.0002
3987.0,-0.0007000000000000001
3986.0,-0.0007000000000000001
3985.0,-0.0007000000000000001
3984.0,-0.00020000000000000004
3983.0,-0.00020000000000000004
3982.0,-0.0008
3981.0,-0.0008
3980.0,0.0011
3979.0,-0.0009
3978.0,0.0011
3977.0,-0.0004
3976.0,-0.0009
3975.0,0.0007
3974.0,-0.00030000000000000003
3973.0,-0.0004
3972.0,0.0011
3971.0,-0.0004
3970.0,-0.0009
3969.0,0.0006000000000000001
3968.0,-0.0004
3967.0,0.0006000000000000001
3966.0,-0.0004
3965.0,-0.0004
3964.0,-0.0009
3963.0,-0.0004
3962.0,0.0001
3961.0,0.0006000000000000001
3960.0,-0.0004
3959.0,0.0001
3958.0,0.0011
3957.0,-0.0005
3956.0,0.001
3955.0,0.001
3954.0,0.0
3953.0,-0.001
3952.0,0.001
3951.0,0.001
3950.0,0.0005
3949.0,0.0009
3948.0,-0.0006000000000000001
3947.0,-0.0006000000000000001
3946.0,-0.0005
3945.0,-0.0005
3944.0,-0.0006000000000000001
3943.0,0.0009
3942.0,-0.0001
3941.0,0.0009
3940.0,0.0
3939.0,0.0005
3938.0,0.0005
3937.0,-0.001
3936.0,0.001
3935.0,0.001
3934.0,0.0005
3933.0,-0.0005
3932.0,0.001
3931.0,-0.001
3930.0,-0.0011
3929.0,-0.0011
3928.0,-0.0006000000000000001
3927.0,0.0004
3926.0,-0.0011
3925.0,-0.0011
3924.0,0.0004
3923.0,-0.0011
3922.0,-0.0007
3921.0,-0.0007
3920.0,-0.0002
3919.0,0.00030000000000000003
3918.0,-0.0012000000000000001
3917.0,0.0009
3916.0,0.0004
3915.0,-0.001
3914.0,0.0
3913.0,0.001
3912.0,0.001
3911.0,0.0004
3910.0,-0.0011
3909.0,-0.0012000000000000001
3908.0,-0.0007
3907.0,-0.0002
3906.0,-0.0007999999999999999
3905.0,-0.0012000000000000001
3904.0,0.00030000000000000003
3903.0,-0.0012000000000000001
3902.0,0.00030000000000000003
3901.0,0.00030000000000000003
3900.0,0.0007000000000000001
3899.0,-0.0003
3898.0,0.00020000000000000004
3897.0,-0.0013
3896.0,-0.0003
3895.0,-0.0002
3894.0,-0.0007
3893.0,0.0008
3892.0,0.00020000000000000004
3891.0,0.0007000000000000001
3890.0,-0.0013
3889.0,-0.0013
3888.0,0.00020000000000000004
3887.0,0.00030000000000000003
3886.0,-0.0007
3885.0,0.00030000000000000003
3884.0,-0.0002
3883.0,0.0008
3882.0,-0.0007999999999999999
3881.0,0.0007000000000000001
3880.0,-0.0007999999999999999
3879.0,-0.0003
3878.0,-0.0007999999999999999
3877.0,-0.0007999999999999999
3876.0,0.0007000000000000001
3875.0,0.0007000000000000001
3874.0,9.999999999999999e-5
3873.0,-0.0009
3872.0,-0.0014
3871.0,-0.0014
3870.0,-0.0009
3869.0,0.0006000000000000001
3868.0,-0.0014
3867.0,-0.0007999999999999999
3866.0,0.0007000000000000001
3865.0,-0.0007999999999999999
3864.0,-0.0013
3863.0,-0.0007999999999999999
3862.0,-0.0013
3861.0,0.0008
3860.0,0.00030000000000000003
3859.0,0.00030000000000000003
3858.0,-0.0007999999999999999
3857.0,0.00020000000000000004
3856.0,0.00020000000000000004
3855.0,-0.0013
3854.0,9.999999999999999e-5
3853.0,0.0006000000000000001
3852.0,-0.0014
3851.0,9.999999999999999e-5
3850.0,-0.0007999999999999999
3849.0,-0.0013
3848.0,0.0007000000000000001
3847.0,0.0007000000000000001
3846.0,-0.0003
3845.0,0.00020000000000000004
3844.0,0.0007000000000000001
3843.0,0.0007000000000000001
3842.0,-0.0007999999999999999
3841.0,0.0007000000000000001
3840.0,-0.0007999999999999999
3839.0,-0.0013
3838.0,-0.0003
3837.0,0.00030000000000000003
3836.0,-0.0002
3835.0,-0.0002
3834.0,0.00030000000000000003
3833.0,-0.0003
3832.0,0.0007000000000000001
3831.0,-0.0007999999999999999
3830.0,-0.0007999999999999999
3829.0,0.00020000000000000004
3828.0,-0.0003
3827.0,0.0007000000000000001
3826.0,0.0007000000000000001
3825.0,-0.0007999999999999999
3824.0,9.999999999999999e-5
3823.0,-0.0013
3822.0,-0.0003
3821.0,-0.0013
3820.0,-0.0003
3819.0,0.0007000000000000001
3818.0,-0.0007999999999999999
3817.0,-0.0013
3816.0,0.00020000000000000004
3815.0,-0.0007999999999999999
3814.0,0.0007000000000000001
3813.0,0.0007000000000000001
3812.0,0.0007000000000000001
3811.0,0.0007000000000000001
3810.0,-0.0013
3809.0,0.00020000000000000004
3808.0,0.0007000000000000001
3807.0,-0.0004
3806.0,0.0006000000000000001
3805.0,-0.0009
3804.0,9.999999999999999e-5
3803.0,0.00020000000000000004
3802.0,-0.0007999999999999999
3801.0,0.00020000000000000004
3800.0,-0.0013
3799.0,0.00020000000000000004
3798.0,-0.0007999999999999999
3797.0,-0.0004
3796.0,-0.0009
3795.0,-0.0004
3794.0,-0.0013
3793.0,0.0007000000000000001
3792.0,0.0006000000000000001
3791.0,0.0006000000000000001
3790.0,-0.0014
3789.0,-0.0009
3788.0,9.999999999999999e-5
3787.0,0.0006000000000000001
3786.0,-0.0009
3785.0,0.00020000000000000004
3784.0,-0.0007999999999999999
3783.0,-0.0002
3782.0,-0.0002
3781.0,-0.0006000000000000001
3780.0,0.0004
3779.0,-0.0012000000000000001
3778.0,-0.0007
3777.0,-0.0012000000000000001
3776.0,-0.0002
3775.0,0.00020000000000000004
3774.0,0.00020000000000000004
3773.0,0.00020000000000000004
3772.0,-0.0003
3771.0,0.0008
3770.0,0.0008
3769.0,-0.0007
3768.0,0.00030000000000000003
3767.0,0.00030000000000000003
3766.0,-0.0002
3765.0,-0.0007999999999999999
3764.0,0.00020000000000000004
3763.0,-0.0003
3762.0,0.0007000000000000001
3761.0,-0.0013
3760.0,-0.0007999999999999999
3759.0,-0.0003
3758.0,-0.0007999999999999999
3757.0,-0.0007999999999999999
3756.0,0.0007000000000000001
3755.0,0.0007000000000000001
3754.0,0.00020000000000000004
3753.0,0.00020000000000000004
3752.0,-0.0003
3751.0,0.0007000000000000001
3750.0,-0.0013
3749.0,0.0007000000000000001
3748.0,0.00020000000000000004
3747.0,0.0007000000000000001
3746.0,-0.0007999999999999999
3745.0,-0.0007
3744.0,-0.0012000000000000001
3743.0,0.0008
3742.0,-0.0002
3741.0,-0.0002
3740.0,-0.0002
3739.0,0.00030000000000000003
3738.0,0.0008
3737.0,0.0009
3736.0,0.0004
3735.0,-0.0006000000000000001
3734.0,0.0009
3733.0,-0.0011
3732.0,0.0009
3731.0,-0.0011
3730.0,0.0004
3729.0,0.0004
3728.0,-0.0006000000000000001
3727.0,-0.0001
3726.0,-0.0005
3725.0,0.001
3724.0,0.0005
3723.0,-0.0001
3722.0,-0.0011
3721.0,0.00030000000000000003
3720.0,-0.0007
3719.0,0.00030000000000000003
3718.0,0.0008
3717.0,-0.0002
3716.0,0.0008
3715.0,-0.0011
3714.0,-0.0001
3713.0,-0.0006000000000000001
3712.0,-0.0001
3711.0,-0.0006000000000000001
3710.0,-0.0006000000000000001
3709.0,0.0009
3708.0,-0.0011
3707.0,-0.0001
3706.0,0.0
3705.0,0.0005
3704.0,0.001
3703.0,-0.001
3702.0,0.0
3701.0,0.001
3700.0,0.001
3699.0,0.001
3698.0,-0.001
3697.0,0.0011
3696.0,-0.0004
3695.0,-0.0009
3694.0,-0.0009
3693.0,0.001
3692.0,-0.0005
3691.0,-0.0005
3690.0,0.0005
3689.0,0.0006000000000000001
3688.0,-0.0004
3687.0,0.0011
3686.0,-0.0009
3685.0,0.0006000000000000001
3684.0,-0.0008
3683.0,-0.0008
3682.0,0.0012000000000000001
3681.0,-0.0007000000000000001
3680.0,-0.0007000000000000001
3679.0,-0.00020000000000000004
3678.0,0.0013
3677.0,0.0009
3676.0,-0.0006000000000000001
3675.0,-0.0006000000000000001
3674.0,0.0009
3673.0,0.0014
3672.0,-0.00020000000000000004
3671.0,0.0013
3670.0,0.0009
3669.0,0.0
3668.0,0.0
3667.0,0.001
3666.0,0.0015
3665.0,-0.0005
3664.0,0.001
3663.0,9.999999999999994e-5
3662.0,-0.0004000000000000001
3661.0,0.0017000000000000001
3660.0,0.0012000000000000001
3659.0,0.0007
3658.0,-0.00019999999999999998
3657.0,0.0013
3656.0,-0.00010000000000000005
3655.0,-0.00010000000000000005
3654.0,0.0
3653.0,0.001
3652.0,0.0016
3651.0,0.0021000000000000003
3650.0,0.0012
3649.0,0.0006999999999999999
3648.0,0.0007999999999999999
3647.0,0.0013
3646.0,0.0014
3645.0,0.0019
3644.0,0.0025
3643.0,0.002
3642.0,0.0025
3641.0,0.0011
3640.0,0.0006999999999999999
3639.0,0.0018
3638.0,0.0009
3637.0,0.002
3636.0,0.0031
3635.0,0.0031
3634.0,0.0022
3633.0,0.0023
3632.0,0.0029
3631.0,0.003
3630.0,0.0026
3629.0,0.0022
3628.0,0.0038
3627.0,0.0029
3626.0,0.0034
3625.0,0.003
3624.0,0.0021
3623.0,0.0037
3622.0,0.0043
3621.0,0.0033
3620.0,0.0029
3619.0,0.0036
3618.0,0.0047
3617.0,0.0049
3616.0,0.0041
3615.0,0.0048000000000000004
3614.0,0.0039000000000000003
3613.0,0.0036
3612.0,0.0058
3611.0,0.0045000000000000005
3610.0,0.0057
3609.0,0.0054
3608.0,0.0060999999999999995
3607.0,0.006200000000000001
3606.0,0.0069
3605.0,0.0071
3604.0,0.0053
3603.0,0.005900000000000001
3602.0,0.0071
3601.0,0.0079
3600.0,0.007600000000000001
3599.0,0.0068000000000000005
3598.0,0.0076
3597.0,0.0068
3596.0,0.0086
3595.0,0.0073
3594.0,0.009500000000000001
3593.0,0.0083
3592.0,0.008499999999999999
3591.0,0.0087
3590.0,0.0095
3589.0,0.0093
3588.0,0.0106
3587.0,0.009899999999999999
3586.0,0.0112
3585.0,0.0115
3584.0,0.0112
3583.0,0.0125
3582.0,0.0118
3581.0,0.011099999999999999
3580.0,0.0123
3579.0,0.0131
3578.0,0.0134
3577.0,0.012199999999999999
3576.0,0.0126
3575.0,0.012899999999999998
3574.0,0.0137
3573.0,0.014
3572.0,0.0158
3571.0,0.0151
3570.0,0.0155
3569.0,0.016
3568.0,0.0165
3567.0,0.0179
3566.0,0.0177
3565.0,0.017
3564.0,0.0188
3563.0,0.0182
3562.0,0.018099999999999998
3561.0,0.0195
3560.0,0.0199
3559.0,0.0198
3558.0,0.0202
3557.0,0.0195
3556.0,0.0209
3555.0,0.0213
3554.0,0.0208
3553.0,0.0233
3552.0,0.0238
3551.0,0.0228
3550.0,0.0232
3549.0,0.0246
3548.0,0.0251
3547.0,0.0256
3546.0,0.0256
3545.0,0.026600000000000002
3544.0,0.0266
3543.0,0.0266
3542.0,0.0276
3541.0,0.027
3540.0,0.029
3539.0,0.0285
3538.0,0.028999999999999998
3537.0,0.031
3536.0,0.031
3535.0,0.0306
3534.0,0.031100000000000003
3533.0,0.0317
3532.0,0.0322
3531.0,0.0323
3530.0,0.0344
3529.0,0.0346
3528.0,0.0347
3527.0,0.0362
3526.0,0.0373
3525.0,0.0369
3524.0,0.0379
3523.0,0.0371
3522.0,0.0387
3521.0,0.0403
3520.0,0.039
3519.0,0.039599999999999996
3518.0,0.042300000000000004
3517.0,0.0414
3516.0,0.0415
3515.0,0.0426
3514.0,0.0438
3513.0,0.044
3512.0,0.0446
3511.0,0.0448
3510.0,0.045899999999999996
3509.0,0.0476
3508.0,0.0468
3507.0,0.0491
3506.0,0.0498
3505.0,0.0506
3504.0,0.0504
3503.0,0.0516
3502.0,0.0513
3501.0,0.0525
3500.0,0.0547
3499.0,0.053399999999999996
3498.0,0.0557
3497.0,0.0569
3496.0,0.0577
3495.0,0.0584
3494.0,0.0577
3493.0,0.0599
3492.0,0.0592
3491.0,0.06
3490.0,0.0618
3489.0,0.0621
3488.0,0.0619
3487.0,0.0637
3486.0,0.0655
3485.0,0.0648
3484.0,0.0656
3483.0,0.0664
3482.0,0.0678
3481.0,0.0697
3480.0,0.0685
3479.0,0.0693
3478.0,0.0706
3477.0,0.0725
3476.0,0.0738
3475.0,0.0742
3474.0,0.0751
3473.0,0.076
3472.0,0.07730000000000001
3471.0,0.0781
3470.0,0.0785
3469.0,0.0779
3468.0,0.0807
3467.0,0.0796
3466.0,0.081
3465.0,0.0824
3464.0,0.0823
3463.0,0.0837
3462.0,0.0841
3461.0,0.087
3460.0,0.0864
3459.0,0.0877
3458.0,0.0896
3457.0,0.09
3456.0,0.0914
3455.0,0.0913
3454.0,0.0922
3453.0,0.0921
3452.0,0.0945
3451.0,0.0943
3450.0,0.09469999999999999
3449.0,0.0967
3448.0,0.0982
3447.0,0.0997
3446.0,0.0991
3445.0,0.1006
3444.0,0.101
3443.0,0.1024
3442.0,0.1024
3441.0,0.1048
3440.0,0.1043
3439.0,0.1052
3438.0,0.1062
3437.0,0.1071
3436.0,0.108
3435.0,0.1093
3434.0,0.11120000000000001
3433.0,0.1117
3432.0,0.1122
3431.0,0.1132
3430.0,0.1141
3429.0,0.1161
3428.0,0.1156
3427.0,0.118
3426.0,0.1194
3425.0,0.1198
3424.0,0.1207
3423.0,0.1211
3422.0,0.1211
3421.0,0.1226
3420.0,0.1251
3419.0,0.124
3418.0,0.1255
3417.0,0.1259
3416.0,0.1269
3415.0,0.1288
3414.0,0.1292
3413.0,0.1296
3412.0,0.132
3411.0,0.1334
3410.0,0.1324
3409.0,0.1349
3408.0,0.1344
3407.0,0.1368
3406.0,0.1367
3405.0,0.1381
3404.0,0.1391
3403.0,0.1395
3402.0,0.14049999999999999
3401.0,0.1419
3400.0,0.1418
3399.0,0.1442
3398.0,0.144
3397.0,0.1464
3396.0,0.1452
3395.0,0.1481
3394.0,0.1485
3393.0,0.1479
3392.0,0.1508
3391.0,0.1507
3390.0,0.1515
3389.0,0.1524
3388.0,0.1522
3387.0,0.1536
3386.0,0.1554
3385.0,0.1568
3384.0,0.1557
3383.0,0.1576
3382.0,0.1585
3381.0,0.1599
3380.0,0.1592
3379.0,0.16
3378.0,0.1624
3377.0,0.1627
3376.0,0.1645
3375.0,0.1633
3374.0,0.1651
3373.0,0.1655
3372.0,0.1663
3371.0,0.1682
3370.0,0.1691
3369.0,0.1684
3368.0,0.1712
3367.0,0.1704
3366.0,0.1726
3365.0,0.1723
3364.0,0.1725
3363.0,0.1747
3362.0,0.1754
3361.0,0.1746
3360.0,0.1759
3359.0,0.1771
3358.0,0.17830000000000001
3357.0,0.178
3356.0,0.1782
3355.0,0.1804
3354.0,0.1806
3353.0,0.1812
3352.0,0.1814
3351.0,0.183
3350.0,0.1821
3349.0,0.1842
3348.0,0.1833
3347.0,0.1849
3346.0,0.1859
3345.0,0.1866
3344.0,0.1872
3343.0,0.1868
3342.0,0.187
3341.0,0.1876
3340.0,0.1896
3339.0,0.1901
3338.0,0.1896
3337.0,0.19
3336.0,0.19090000000000001
3335.0,0.1919
3334.0,0.1918
3333.0,0.1928
3332.0,0.1913
3331.0,0.1937
3330.0,0.1922
3329.0,0.1936
3328.0,0.1941
3327.0,0.1935
3326.0,0.1949
3325.0,0.1953
3324.0,0.1961
3323.0,0.196
3322.0,0.1973
3321.0,0.1966
3320.0,0.197
3319.0,0.1978
3318.0,0.1971
3317.0,0.1979
3316.0,0.1991
3315.0,0.1979
3314.0,0.1982
3313.0,0.1999
3312.0,0.2002
3311.0,0.1995
3310.0,0.2003
3309.0,0.201
3308.0,0.2012
3307.0,0.1999
3306.0,0.2
3305.0,0.2001
3304.0,0.1996
3303.0,0.2012
3302.0,0.2012
3301.0,0.2008
3300.0,0.1998
3299.0,0.2004
3298.0,0.2019
3297.0,0.202
3296.0,0.2
3295.0,0.2005
3294.0,0.201
3293.0,0.2005
3292.0,0.202
3291.0,0.2019
3290.0,0.1998
3289.0,0.2002
3288.0,0.2006
3287.0,0.2015
3286.0,0.1999
3285.0,0.2008
3284.0,0.1997
3283.0,0.2006
3282.0,0.2004
3281.0,0.1992
3280.0,0.2
3279.0,0.1993
3278.0,0.2002
3277.0,0.1986
3276.0,0.1989
3275.0,0.1978
3274.0,0.1996
3273.0,0.1978
3272.0,0.1986
3271.0,0.19669999999999999
3270.0,0.1978
3269.0,0.1959
3268.0,0.1965
3267.0,0.1952
3266.0,0.1958
3265.0,0.196
3264.0,0.195
3263.0,0.1946
3262.0,0.1932
3261.0,0.1933
3260.0,0.1925
3259.0,0.1921
3258.0,0.1932
3257.0,0.1928
3256.0,0.1928
3255.0,0.1923
3254.0,0.1913
3253.0,0.1912
3252.0,0.1902
3251.0,0.1886
3250.0,0.1876
3249.0,0.188
3248.0,0.188
3247.0,0.1874
3246.0,0.1874
3245.0,0.1852
3244.0,0.1846
3243.0,0.1844
3242.0,0.1827
3241.0,0.182
3240.0,0.1813
3239.0,0.1826
3238.0,0.18
3237.0,0.1814
3236.0,0.1803
3235.0,0.1796
3234.0,0.1784
3233.0,0.1781
3232.0,0.1769
3231.0,0.1771
3230.0,0.1743
3229.0,0.1735
3228.0,0.1737
3227.0,0.1734
3226.0,0.1711
3225.0,0.1712
3224.0,0.1699
3223.0,0.1691
3222.0,0.1687
3221.0,0.1684
3220.0,0.1665
3219.0,0.1672
3218.0,0.1658
3217.0,0.1634
3216.0,0.1646
3215.0,0.1627
3214.0,0.1618
3213.0,0.1598
3212.0,0.1604
3211.0,0.158
3210.0,0.1575
3209.0,0.1561
3208.0,0.1557
3207.0,0.1552
3206.0,0.1552
3205.0,0.1532
3204.0,0.1528
3203.0,0.1518
3202.0,0.1493
3201.0,0.1483
3200.0,0.1478
3199.0,0.1473
3198.0,0.1463
3197.0,0.1443
3196.0,0.1448
3195.0,0.1433
3194.0,0.1433
3193.0,0.1412
3192.0,0.1402
3191.0,0.1386
3190.0,0.1381
3189.0,0.1381
3188.0,0.135
3187.0,0.1345
3186.0,0.1345
3185.0,0.1329
3184.0,0.1324
3183.0,0.1309
3182.0,0.1304
3181.0,0.1294
3180.0,0.1273
3179.0,0.1267
3178.0,0.1256
3177.0,0.1245
3176.0,0.123
3175.0,0.1229
3174.0,0.1214
3173.0,0.11989999999999999
3172.0,0.1198
3171.0,0.1188
3170.0,0.1168
3169.0,0.1167
3168.0,0.1152
3167.0,0.1146
3166.0,0.1121
3165.0,0.1116
3164.0,0.1121
3163.0,0.1091
3162.0,0.1101
3161.0,0.1076
3160.0,0.1066
3159.0,0.1071
3158.0,0.1061
3157.0,0.1046
3156.0,0.1031
3155.0,0.1021
3154.0,0.1001
3153.0,0.1006
3152.0,0.0996
3151.0,0.0981
3150.0,0.0981
3149.0,0.0956
3148.0,0.0951
3147.0,0.0947
3146.0,0.0927
3145.0,0.0928
3144.0,0.0918
3143.0,0.0914
3142.0,0.0895
3141.0,0.088
3140.0,0.0866
3139.0,0.0857
3138.0,0.0852
3137.0,0.0844
3136.0,0.083
3135.0,0.0842
3134.0,0.0813
3133.0,0.081
3132.0,0.0811
3131.0,0.0802
3130.0,0.0799
3129.0,0.0775
3128.0,0.0767
3127.0,0.0759
3126.0,0.0746
3125.0,0.0748
3124.0,0.0745
3123.0,0.0731
3122.0,0.0723
3121.0,0.0721
3120.0,0.0698
3119.0,0.0701
3118.0,0.0698
3117.0,0.0686
3116.0,0.0673
3115.0,0.066
3114.0,0.0672
3113.0,0.065
3112.0,0.0638
3111.0,0.0636
3110.0,0.0633
3109.0,0.0636
3108.0,0.0624
3107.0,0.0622
3106.0,0.061
3105.0,0.0593
3104.0,0.0582
3103.0,0.0591
3102.0,0.0569
3101.0,0.056799999999999996
3100.0,0.0572
3099.0,0.0566
3098.0,0.0544
3097.0,0.0543
3096.0,0.0547
3095.0,0.0526
3094.0,0.052
3093.0,0.0524
3092.0,0.0524
3091.0,0.0508
3090.0,0.0498
3089.0,0.0512
3088.0,0.0497
3087.0,0.0497
3086.0,0.0482
3085.0,0.0477
3084.0,0.048600000000000004
3083.0,0.0461
3082.0,0.0466
3081.0,0.0466
3080.0,0.0446
3079.0,0.0446
3078.0,0.0456
3077.0,0.0441
3076.0,0.0426
3075.0,0.0437
3074.0,0.0432
3073.0,0.0412
3072.0,0.0418
3071.0,0.0403
3070.0,0.0404
3069.0,0.04
3068.0,0.0395
3067.0,0.040100000000000004
3066.0,0.0392
3065.0,0.0389
3064.0,0.0385
3063.0,0.0376
3062.0,0.0386
3061.0,0.0363
3060.0,0.0379
3059.0,0.0365
3058.0,0.0371
3057.0,0.0368
3056.0,0.0344
3055.0,0.0356
3054.0,0.0343
3053.0,0.0335
3052.0,0.0346
3051.0,0.0343
3050.0,0.034
3049.0,0.0322
3048.0,0.0319
3047.0,0.0321
3046.0,0.0332
3045.0,0.0324
3044.0,0.0316
3043.0,0.0319
3042.0,0.0306
3041.0,0.0309
3040.0,0.031599999999999996
3039.0,0.0298
3038.0,0.029599999999999998
3037.0,0.0288
3036.0,0.030600000000000002
3035.0,0.0304
3034.0,0.0292
3033.0,0.029
3032.0,0.0288
3031.0,0.0285
3030.0,0.0278
3029.0,0.0271
3028.0,0.0269
3027.0,0.0277
3026.0,0.0285
3025.0,0.0273
3024.0,0.0282
3023.0,0.0265
3022.0,0.0258
3021.0,0.0271
3020.0,0.026
3019.0,0.0274
3018.0,0.0267
3017.0,0.027100000000000003
3016.0,0.0269
3015.0,0.0268
3014.0,0.0252
3013.0,0.0256
3012.0,0.0261
3011.0,0.0261
3010.0,0.0246
3009.0,0.024499999999999997
3008.0,0.024999999999999998
3007.0,0.0255
3006.0,0.026600000000000002
3005.0,0.0262
3004.0,0.0268
3003.0,0.026
3002.0,0.0267
3001.0,0.027
3000.0,0.0263
2999.0,0.0282
2998.0,0.0281
2997.0,0.0281
2996.0,0.0287
2995.0,0.028399999999999998
2994.0,0.0306
2993.0,0.0299
2992.0,0.0328
2991.0,0.0333
2990.0,0.0338
2989.0,0.0358
2988.0,0.034999999999999996
2987.0,0.0377
2986.0,0.037899999999999996
2985.0,0.0397
2984.0,0.0401
2983.0,0.0414
2982.0,0.0428
2981.0,0.0448
2980.0,0.0462
2979.0,0.0491
2978.0,0.049
2977.0,0.0499
2976.0,0.053200000000000004
2975.0,0.054
2974.0,0.0557
2973.0,0.0548
2972.0,0.0558
2971.0,0.0566
2970.0,0.0578
2969.0,0.0588
2968.0,0.0586
2967.0,0.0593
2966.0,0.0598
2965.0,0.0598
2964.0,0.0598
2963.0,0.0584
2962.0,0.0584
2961.0,0.0591
2960.0,0.0589
2959.0,0.0598
2958.0,0.0614
2957.0,0.0611
2956.0,0.0629
2955.0,0.062299999999999994
2954.0,0.0638
2953.0,0.0644
2952.0,0.0666
2951.0,0.0683
2950.0,0.0685
2949.0,0.0698
2948.0,0.0726
2947.0,0.074
2946.0,0.0738
2945.0,0.0746
2944.0,0.076
2943.0,0.0773
2942.0,0.0785
2941.0,0.0798
2940.0,0.0829
2939.0,0.0835
2938.0,0.0849
2937.0,0.0837
2936.0,0.0849
2935.0,0.0864
2934.0,0.0858
2933.0,0.086
2932.0,0.0876
2931.0,0.087
2930.0,0.0852
2929.0,0.0859
2928.0,0.0864
2927.0,0.0839
2926.0,0.0854
2925.0,0.0847
2924.0,0.0819
2923.0,0.0816
2922.0,0.0822
2921.0,0.0798
2920.0,0.0799
2919.0,0.0785
2918.0,0.0786
2917.0,0.0762
2916.0,0.0748
2915.0,0.0739
2914.0,0.075
2913.0,0.0737
2912.0,0.073
2911.0,0.0708
2910.0,0.0701
2909.0,0.0716
2908.0,0.0711
2907.0,0.0697
2906.0,0.0693
2905.0,0.0702
2904.0,0.0701
2903.0,0.0686
2902.0,0.0697
2901.0,0.0685
2900.0,0.0708
2899.0,0.0697
2898.0,0.0701
2897.0,0.0706
2896.0,0.0708
2895.0,0.0715
2894.0,0.0738
2893.0,0.0751
2892.0,0.0755
2891.0,0.0763
2890.0,0.0767
2889.0,0.0776
2888.0,0.0785
2887.0,0.0793
2886.0,0.0802
2885.0,0.0799
2884.0,0.0806
2883.0,0.0822
2882.0,0.0826
2881.0,0.0839
2880.0,0.0842
2879.0,0.0832
2878.0,0.0831
2877.0,0.0823
2876.0,0.0833
2875.0,0.0812
2874.0,0.0819
2873.0,0.0805
2872.0,0.0795
2871.0,0.0788
2870.0,0.0776
2869.0,0.0748
2868.0,0.0735
2867.0,0.0721
2866.0,0.0716
2865.0,0.0687
2864.0,0.0678
2863.0,0.0675
2862.0,0.0667
2861.0,0.0634
2860.0,0.0637
2859.0,0.061
2858.0,0.061900000000000004
2857.0,0.0588
2856.0,0.0594
2855.0,0.0589
2854.0,0.0566
2853.0,0.0563
2852.0,0.0545
2851.0,0.0548
2850.0,0.0545
2849.0,0.0528
2848.0,0.0536
2847.0,0.0524
2846.0,0.0512
2845.0,0.0496
2844.0,0.0505
2843.0,0.049
2842.0,0.0499
2841.0,0.0473
2840.0,0.0472
2839.0,0.0482
2838.0,0.0456
2837.0,0.0471
2836.0,0.0451
2835.0,0.0451
2834.0,0.0436
2833.0,0.0436
2832.0,0.0431
2831.0,0.0431
2830.0,0.0426
2829.0,0.0412
2828.0,0.0422
2827.0,0.0412
2826.0,0.0402
2825.0,0.0397
2824.0,0.0407
2823.0,0.0393
2822.0,0.0384
2821.0,0.037399999999999996
2820.0,0.037
2819.0,0.0381
2818.0,0.0376
2817.0,0.0366
2816.0,0.0357
2815.0,0.0358
2814.0,0.0364
2813.0,0.0345
2812.0,0.0346
2811.0,0.0341
2810.0,0.0347
2809.0,0.0333
2808.0,0.0324
2807.0,0.0336
2806.0,0.0317
2805.0,0.0324
2804.0,0.030600000000000002
2803.0,0.0322
2802.0,0.0314
2801.0,0.0306
2800.0,0.0302
2799.0,0.0294
2798.0,0.030600000000000002
2797.0,0.0283
2796.0,0.030000000000000002
2795.0,0.0282
2794.0,0.0279
2793.0,0.0282
2792.0,0.0269
2791.0,0.0272
2790.0,0.0279
2789.0,0.0277
2788.0,0.028
2787.0,0.0262
2786.0,0.0275
2785.0,0.0273
2784.0,0.0251
2783.0,0.0259
2782.0,0.0247
2781.0,0.0246
2780.0,0.0249
2779.0,0.0262
2778.0,0.0245
2777.0,0.023799999999999998
2776.0,0.0251
2775.0,0.024
2774.0,0.023299999999999998
2773.0,0.0237
2772.0,0.024
2771.0,0.0233
2770.0,0.0237
2769.0,0.0236
2768.0,0.0245
2767.0,0.0238
2766.0,0.022699999999999998
2765.0,0.0231
2764.0,0.0235
2763.0,0.0229
2762.0,0.0228
2761.0,0.023200000000000002
2760.0,0.022099999999999998
2759.0,0.0225
2758.0,0.0234
2757.0,0.0218
2756.0,0.0233
2755.0,0.0212
2754.0,0.023100000000000002
2753.0,0.020999999999999998
2752.0,0.0229
2751.0,0.0228
2750.0,0.0212
2749.0,0.022600000000000002
2748.0,0.0215
2747.0,0.0214
2746.0,0.0213
2745.0,0.0207
2744.0,0.0212
2743.0,0.0211
2742.0,0.022000000000000002
2741.0,0.0219
2740.0,0.0203
2739.0,0.0218
2738.0,0.0207
2737.0,0.0201
2736.0,0.0211
2735.0,0.0195
2734.0,0.0194
2733.0,0.019799999999999998
2732.0,0.0207
2731.0,0.0192
2730.0,0.0201
2729.0,0.02
2728.0,0.0194
2727.0,0.0198
2726.0,0.0192
2725.0,0.0201
2724.0,0.0185
2723.0,0.0199
2722.0,0.0198
2721.0,0.0198
2720.0,0.0197
2719.0,0.0191
2718.0,0.0185
2717.0,0.0179
2716.0,0.019200000000000002
2715.0,0.0191
2714.0,0.0185
2713.0,0.0184
2712.0,0.0173
2711.0,0.019200000000000002
2710.0,0.019100000000000002
2709.0,0.018
2708.0,0.0179
2707.0,0.0173
2706.0,0.0187
2705.0,0.0167
2704.0,0.0171
2703.0,0.0176
2702.0,0.018500000000000003
2701.0,0.018000000000000002
2700.0,0.0174
2699.0,0.0163
2698.0,0.0168
2697.0,0.0167
2696.0,0.0181
2695.0,0.0181
2694.0,0.0175
2693.0,0.018000000000000002
2692.0,0.0165
2691.0,0.0174
2690.0,0.015899999999999997
2689.0,0.0174
2688.0,0.0178
2687.0,0.0168
2686.0,0.0178
2685.0,0.0177
2684.0,0.0157
2683.0,0.0161
2682.0,0.0156
2681.0,0.0171
2680.0,0.0166
2679.0,0.0161
2678.0,0.0155
2677.0,0.017
2676.0,0.0159
2675.0,0.0164
2674.0,0.0164
2673.0,0.0164
2672.0,0.015799999999999998
2671.0,0.0168
2670.0,0.0172
2669.0,0.0167
2668.0,0.0162
2667.0,0.0172
2666.0,0.0161
2665.0,0.015099999999999999
2664.0,0.0166
2663.0,0.0155
2662.0,0.017
2661.0,0.015
2660.0,0.0159
2659.0,0.015300000000000001
2658.0,0.015300000000000001
2657.0,0.016300000000000002
2656.0,0.015199999999999998
2655.0,0.0166
2654.0,0.015099999999999999
2653.0,0.016
2652.0,0.0164
2651.0,0.0153
2650.0,0.0163
2649.0,0.0163
2648.0,0.0157
2647.0,0.0157
2646.0,0.015600000000000001
2645.0,0.0155
2644.0,0.0139
2643.0,0.015300000000000001
2642.0,0.0143
2641.0,0.0152
2640.0,0.0146
2639.0,0.014
2638.0,0.0144
2637.0,0.0138
2636.0,0.0133
2635.0,0.0142
2634.0,0.015200000000000002
2633.0,0.0141
2632.0,0.014
2631.0,0.0149
2630.0,0.0148
2629.0,0.0137
2628.0,0.0136
2627.0,0.014
2626.0,0.0129
2625.0,0.0143
2624.0,0.0132
2623.0,0.013600000000000001
2622.0,0.012
2621.0,0.0135
2620.0,0.0119
2619.0,0.011800000000000001
2618.0,0.0132
2617.0,0.0131
2616.0,0.013600000000000001
2615.0,0.0125
2614.0,0.0129
2613.0,0.011300000000000001
2612.0,0.0122
2611.0,0.0121
2610.0,0.013000000000000001
2609.0,0.0119
2608.0,0.0119
2607.0,0.012799999999999999
2606.0,0.0112
2605.0,0.010599999999999998
2604.0,0.011
2603.0,0.0109
2602.0,0.010799999999999999
2601.0,0.0107
2600.0,0.010100000000000001
2599.0,0.0115
2598.0,0.0119
2597.0,0.011800000000000001
2596.0,0.0107
2595.0,0.0097
2594.0,0.0101
2593.0,0.01
2592.0,0.009500000000000001
2591.0,0.01
2590.0,0.0114
2589.0,0.009399999999999999
2588.0,0.0103
2587.0,0.0108
2586.0,0.011300000000000001
2585.0,0.010700000000000001
2584.0,0.0102
2583.0,0.011099999999999999
2582.0,0.0105
2581.0,0.01
2580.0,0.0095
2579.0,0.0099
2578.0,0.0098
2577.0,0.008799999999999999
2576.0,0.0103
2575.0,0.010700000000000001
2574.0,0.0087
2573.0,0.010700000000000001
2572.0,0.010700000000000001
2571.0,0.0096
2570.0,0.0086
2569.0,0.0086
2568.0,0.0101
2567.0,0.0101
2566.0,0.01
2565.0,0.0095
2564.0,0.0085
2563.0,0.0104
2562.0,0.008400000000000001
2561.0,0.008799999999999999
2560.0,0.0093
2559.0,0.008299999999999998
2558.0,0.0103
2557.0,0.0092
2556.0,0.0092
2555.0,0.008199999999999999
2554.0,0.0102
2553.0,0.0097
2552.0,0.0097
2551.0,0.008199999999999999
2550.0,0.009600000000000001
2549.0,0.009600000000000001
2548.0,0.009600000000000001
2547.0,0.0081
2546.0,0.0086
2545.0,0.009600000000000001
2544.0,0.009999999999999998
2543.0,0.009
2542.0,0.009899999999999999
2541.0,0.0089
2540.0,0.0084
2539.0,0.0089
2538.0,0.0084
2537.0,0.009899999999999999
2536.0,0.0079
2535.0,0.009899999999999999
2534.0,0.0079
2533.0,0.009899999999999999
2532.0,0.0084
2531.0,0.0094
2530.0,0.0094
2529.0,0.009899999999999999
2528.0,0.0089
2527.0,0.0078000000000000005
2526.0,0.0083
2525.0,0.0097
2524.0,0.0091
2523.0,0.009600000000000001
2522.0,0.009600000000000001
2521.0,0.009600000000000001
2520.0,0.0091
2519.0,0.0076
2518.0,0.0085
2517.0,0.0089
2516.0,0.0083
2515.0,0.0088
2514.0,0.0092
2513.0,0.0092
2512.0,0.0070999999999999995
2511.0,0.0070999999999999995
2510.0,0.0091
2509.0,0.0077
2508.0,0.0077
2507.0,0.0081
2506.0,0.0075
2505.0,0.008400000000000001
2504.0,0.008900000000000002
2503.0,0.0078
2502.0,0.008900000000000002
2501.0,0.0074
2500.0,0.0079
2499.0,0.0068
2498.0,0.008799999999999999
2497.0,0.0077
2496.0,0.0077
2495.0,0.0071
2494.0,0.0066
2493.0,0.006999999999999999
2492.0,0.0085
2491.0,0.006999999999999999
2490.0,0.0079
2489.0,0.0063
2488.0,0.0063
2487.0,0.0078
2486.0,0.0073
2485.0,0.0083
2484.0,0.0083
2483.0,0.0078
2482.0,0.0063
2481.0,0.006699999999999999
2480.0,0.0081
2479.0,0.008
2478.0,0.007
2477.0,0.0075
2476.0,0.008
2475.0,0.0059
2474.0,0.0074
2473.0,0.0078
2472.0,0.0067
2471.0,0.0072
2470.0,0.0071
2469.0,0.0076
2468.0,0.0056
2467.0,0.0071
2466.0,0.0066
2465.0,0.0055
2464.0,0.0055
2463.0,0.005900000000000001
2462.0,0.0068000000000000005
2461.0,0.0053
2460.0,0.0062
2459.0,0.0057
2458.0,0.0051
2457.0,0.006500000000000001
2456.0,0.006500000000000001
2455.0,0.006500000000000001
2454.0,0.0049
2453.0,0.0069
2452.0,0.005299999999999999
2451.0,0.0058
2450.0,0.0063
2449.0,0.0058
2448.0,0.0057
2447.0,0.0047
2446.0,0.0046
2445.0,0.006
2444.0,0.0055
2443.0,0.005900000000000001
2442.0,0.0044
2441.0,0.0044
2440.0,0.0058
2439.0,0.0062
2438.0,0.004699999999999999
2437.0,0.0061
2436.0,0.0046
2435.0,0.004
2434.0,0.004
2433.0,0.0049
2432.0,0.0059
2431.0,0.0043
2430.0,0.0037999999999999996
2429.0,0.0048
2428.0,0.0052
2427.0,0.0057
2426.0,0.0036
2425.0,0.0040999999999999995
2424.0,0.0046
2423.0,0.0055
2422.0,0.0034999999999999996
2421.0,0.0049
2420.0,0.0054
2419.0,0.0048000000000000004
2418.0,0.0048000000000000004
2417.0,0.0052
2416.0,0.0042
2415.0,0.0036999999999999997
2414.0,0.0031999999999999997
2413.0,0.0031999999999999997
2412.0,0.0031000000000000003
2411.0,0.003
2410.0,0.004
2409.0,0.0045000000000000005
2408.0,0.0045000000000000005
2407.0,0.005
2406.0,0.0029
2405.0,0.0034
2404.0,0.0043
2403.0,0.0033
2402.0,0.0043
2401.0,0.0038
2400.0,0.0048000000000000004
2399.0,0.0038
2398.0,0.0033
2397.0,0.0027
2396.0,0.0027
2395.0,0.0046
2394.0,0.0040999999999999995
2393.0,0.0040999999999999995
2392.0,0.004
2391.0,0.003
2390.0,0.0025
2389.0,0.004399999999999999
2388.0,0.0029
2387.0,0.004399999999999999
2386.0,0.0028
2385.0,0.0033
2384.0,0.0033
2383.0,0.0023
2382.0,0.0039
2381.0,0.0039
2380.0,0.0039
2379.0,0.0033
2378.0,0.004200000000000001
2377.0,0.0027
2376.0,0.0026
2375.0,0.0031
2374.0,0.0040999999999999995
2373.0,0.0032
2372.0,0.0038
2371.0,0.0043
2370.0,0.0028
2369.0,0.0043
2368.0,0.0043
2367.0,0.0037
2366.0,0.004200000000000001
2365.0,0.0022
2364.0,0.004200000000000001
2363.0,0.0031
2362.0,0.0021
2361.0,0.0031
2360.0,0.002
2359.0,0.002
2358.0,0.0039
2357.0,0.0025
2356.0,0.0026
2355.0,0.0032
2354.0,0.0037
2353.0,0.0027
2352.0,0.0036
2351.0,0.0036
2350.0,0.0035
2349.0,0.002
2348.0,0.0035
2347.0,0.002
2346.0,0.003
2345.0,0.0035
2344.0,0.004
2343.0,0.003
2342.0,0.0039
2341.0,0.0024
2340.0,0.0039
2339.0,0.0034
2338.0,0.0035
2337.0,0.0035
2336.0,0.0026
2335.0,0.0035
2334.0,0.004
2333.0,0.0034
2332.0,0.0029
2331.0,0.0038
2330.0,0.0033
2329.0,0.0037
2328.0,0.0022
2327.0,0.0018
2326.0,0.0018
2325.0,0.0023
2324.0,0.0032
2323.0,0.0022
2322.0,0.0033
2321.0,0.0038
2320.0,0.0033
2319.0,0.0022
2318.0,0.0037
2317.0,0.0032
2316.0,0.0028
2315.0,0.0033
2314.0,0.0018
2313.0,0.0027
2312.0,0.0031
2311.0,0.0031
2310.0,0.0026
2309.0,0.0037
2308.0,0.0032
2307.0,0.0036
2306.0,0.003
2305.0,0.0035
2304.0,0.003
2303.0,0.0036
2302.0,0.0015999999999999999
2301.0,0.0036
2300.0,0.002
2299.0,0.0025
2298.0,0.0018999999999999998
2297.0,0.0034
2296.0,0.0024
2295.0,0.0033
2294.0,0.0033
2293.0,0.0018
2292.0,0.0022
2291.0,0.0022
2290.0,0.0027
2289.0,0.0017000000000000001
2288.0,0.0031
2287.0,0.0010999999999999998
2286.0,0.0010999999999999998
2285.0,0.0021
2284.0,0.0010999999999999998
2283.0,0.0021
2282.0,0.0015999999999999999
2281.0,0.0015999999999999999
2280.0,0.0015
2279.0,0.0025
2278.0,0.0015
2277.0,0.001
2276.0,0.0024000000000000002
2275.0,0.0024000000000000002
2274.0,0.0024000000000000002
2273.0,0.0018
2272.0,0.0028
2271.0,0.0028
2270.0,0.0013
2269.0,0.0021999999999999997
2268.0,0.0006999999999999999
2267.0,0.0027
2266.0,0.0012
2265.0,0.0021999999999999997
2264.0,0.0021999999999999997
2263.0,0.0026
2262.0,0.0026
2261.0,0.0021999999999999997
2260.0,0.0017
2259.0,0.0006999999999999999
2258.0,0.0006000000000000001
2257.0,0.0021000000000000003
2256.0,0.0011
2255.0,0.0021000000000000003
2254.0,0.0011
2253.0,0.0021000000000000003
2252.0,0.0021999999999999997
2251.0,0.0021999999999999997
2250.0,0.0027
2249.0,0.0006999999999999999
2248.0,0.0007999999999999999
2247.0,0.0028
2246.0,0.0018
2245.0,0.0013
2244.0,0.0012
2243.0,0.0021999999999999997
2242.0,0.0027
2241.0,0.0006999999999999999
2240.0,0.0026
2239.0,0.0021000000000000003
2238.0,0.0026
2237.0,0.0021999999999999997
2236.0,0.0012
2235.0,0.0012
2234.0,0.0011
2233.0,0.0016
2232.0,0.0025
2231.0,0.0025
2230.0,0.0005
2229.0,0.001
2228.0,0.001
2227.0,0.0015
2226.0,0.0006000000000000001
2225.0,0.0021999999999999997
2224.0,0.0006999999999999999
2223.0,0.0027
2222.0,0.0006999999999999999
2221.0,0.0028
2220.0,0.0018
2219.0,0.0023
2218.0,0.0018
2217.0,0.0017
2216.0,0.0021999999999999997
2215.0,0.0027
2214.0,0.0021999999999999997
2213.0,0.0018
2212.0,0.0013
2211.0,0.0006999999999999999
2210.0,0.0011
2209.0,0.0006000000000000001
2208.0,0.0026
2207.0,0.0011
2206.0,0.0017
2205.0,0.0027
2204.0,0.0011
2203.0,0.0011
2202.0,0.0005
2201.0,0.001
2200.0,0.001
2199.0,0.0005
2198.0,0.002
2197.0,0.0021000000000000003
2196.0,0.0027
2195.0,0.0027
2194.0,0.0016
2193.0,0.0016
2192.0,0.0011
2191.0,0.0021000000000000003
2190.0,0.0006000000000000001
2189.0,0.0026
2188.0,0.0011
2187.0,0.0021000000000000003
2186.0,0.0016
2185.0,0.0017
2184.0,0.0018
2183.0,0.0024000000000000002
2182.0,0.0019
2181.0,0.0009
2180.0,0.0009
2179.0,0.0007999999999999999
2178.0,0.0018
2177.0,0.0013
2176.0,0.0028
2175.0,0.0024000000000000002
2174.0,0.0014
2173.0,0.0023
2172.0,0.0006999999999999999
2171.0,0.0006999999999999999
2170.0,0.0006000000000000001
2169.0,0.0012
2168.0,0.0021999999999999997
2167.0,0.0028
2166.0,0.0028
2165.0,0.0018
2164.0,0.0021999999999999997
2163.0,0.0006999999999999999
2162.0,0.0021000000000000003
2161.0,0.0026
2160.0,0.0026
2159.0,0.0026
2158.0,0.0005
2157.0,0.0015
2156.0,0.0027
2155.0,0.0028
2154.0,0.0028
2153.0,0.0013
2152.0,0.0019
2151.0,0.0029
2150.0,0.0015
2149.0,0.002
2148.0,0.003
2147.0,0.003
2146.0,0.0010999999999999998
2145.0,0.0015999999999999999
2144.0,0.0010999999999999998
2143.0,0.0010999999999999998
2142.0,0.002
2141.0,0.0024000000000000002
2140.0,0.0007999999999999999
2139.0,0.0013
2138.0,0.0013
2137.0,0.0013
2136.0,0.0019
2135.0,0.001
2134.0,0.0010999999999999998
2133.0,0.0021
2132.0,0.0012000000000000001
2131.0,0.0017000000000000001
2130.0,0.0027
2129.0,0.0022
2128.0,0.0021
2127.0,0.0031
2126.0,0.0015
2125.0,0.002
2124.0,0.0015
2123.0,0.003
2122.0,0.002
2121.0,0.002
2120.0,0.0010999999999999998
2119.0,0.0031
2118.0,0.0015999999999999999
2117.0,0.0032
2116.0,0.0032
2115.0,0.0028
2114.0,0.0018
2113.0,0.0023
2112.0,0.0013
2111.0,0.0017000000000000001
2110.0,0.0022
2109.0,0.0010999999999999998
2108.0,0.0010999999999999998
2107.0,0.0026
2106.0,0.0026
2105.0,0.0015999999999999999
2104.0,0.0026
2103.0,0.0022
2102.0,0.0027
2101.0,0.0018
2100.0,0.0028
2099.0,0.0013
2098.0,0.0022
2097.0,0.0022
2096.0,0.0021
2095.0,0.0022
2094.0,0.0012000000000000001
2093.0,0.0032
2092.0,0.0022
2091.0,0.0018
2090.0,0.0033
2089.0,0.0024
2088.0,0.0035
2087.0,0.0035
2086.0,0.0018999999999999998
2085.0,0.0034
2084.0,0.0024
2083.0,0.0034
2082.0,0.0024
2081.0,0.0013999999999999998
2080.0,0.0034
2079.0,0.002
2078.0,0.0015
2077.0,0.002
2076.0,0.002
2075.0,0.0029
2074.0,0.0024
2073.0,0.0029
2072.0,0.0034
2071.0,0.0013999999999999998
2070.0,0.0028
2069.0,0.0028
2068.0,0.0028
2067.0,0.0028
2066.0,0.0024
2065.0,0.0029
2064.0,0.0013999999999999998
2063.0,0.0018999999999999998
2062.0,0.0018
2061.0,0.0018
2060.0,0.0023
2059.0,0.0023
2058.0,0.0032
2057.0,0.0022
2056.0,0.0031
2055.0,0.0015999999999999999
2054.0,0.0025
2053.0,0.003
2052.0,0.0024000000000000002
2051.0,0.0019
2050.0,0.0019
2049.0,0.0024000000000000002
2048.0,0.0009
2047.0,0.0019
2046.0,0.0014
2045.0,0.0019
2044.0,0.0009
2043.0,0.0019
2042.0,0.0024000000000000002
2041.0,0.0009
2040.0,0.0024000000000000002
2039.0,0.0029
2038.0,0.0007999999999999999
2037.0,0.0027
2036.0,0.0005
2035.0,0.0009
2034.0,0.0024000000000000002
2033.0,0.0014
2032.0,0.0025
2031.0,0.0026
2030.0,0.0006000000000000001
2029.0,0.0016
2028.0,0.0026
2027.0,0.0016
2026.0,0.0016
2025.0,0.0016
2024.0,0.0015
2023.0,0.0015
2022.0,0.0015
2021.0,0.0025
2020.0,0.0005
2019.0,0.0025
2018.0,0.002
2017.0,0.001
2016.0,0.0005
2015.0,0.0014
2014.0,0.0002999999999999999
2013.0,0.0018
2012.0,0.0023
2011.0,0.0002999999999999999
2010.0,0.00019999999999999987
2009.0,0.0006000000000000001
2008.0,0.0006000000000000001
2007.0,0.0011
2006.0,0.0006999999999999999
2005.0,0.00039999999999999996
2004.0,0.002
2003.0,0.0015
2002.0,0.0005
2001.0,0.0025
2000.0,0.0021000000000000003
1999.0,0.0021000000000000003
1998.0,0.0012
1997.0,0.0021000000000000003
1996.0,0.0016
1995.0,0.0025
1994.0,0.002
1993.0,0.0016
1992.0,0.0026
1991.0,0.0026
1990.0,0.0021000000000000003
1989.0,0.0021000000000000003
1988.0,0.0026
1987.0,0.0017
1986.0,0.0006999999999999999
1985.0,0.0007999999999999999
1984.0,0.0018
1983.0,0.0018
1982.0,0.0006999999999999999
1981.0,0.0021000000000000003
1980.0,0.0016
1979.0,0.0021000000000000003
1978.0,0.0006000000000000001
1977.0,0.0026
1976.0,0.0021000000000000003
1975.0,0.0015
1974.0,0.0021000000000000003
1973.0,0.0021999999999999997
1972.0,0.0019
1971.0,0.0014
1970.0,0.0014
1969.0,0.0014
1968.0,0.002
1967.0,0.003
1966.0,0.0025
1965.0,0.0026
1964.0,0.0026
1963.0,0.0015999999999999999
1962.0,0.0010999999999999998
1961.0,0.0015999999999999999
1960.0,0.0015999999999999999
1959.0,0.0015
1958.0,0.0014
1957.0,0.0024000000000000002
1956.0,0.0029
1955.0,0.0029
1954.0,0.0024000000000000002
1953.0,0.0024000000000000002
1952.0,0.0028
1951.0,0.0013
1950.0,0.0017
1949.0,0.0006999999999999999
1948.0,0.0021999999999999997
1947.0,0.0028
1946.0,0.0029
1945.0,0.0024000000000000002
1944.0,0.0019
1943.0,0.0007999999999999999
1942.0,0.0021999999999999997
1941.0,0.0021999999999999997
1940.0,0.0007999999999999999
1939.0,0.0023
1938.0,0.0013
1937.0,0.0006999999999999999
1936.0,0.0017
1935.0,0.0016
1934.0,0.0016
1933.0,0.0021999999999999997
1932.0,0.0021999999999999997
1931.0,0.0021999999999999997
1930.0,0.0017
1929.0,0.0021999999999999997
1928.0,0.0027
1927.0,0.0021999999999999997
1926.0,0.0018
1925.0,0.0028
1924.0,0.0028
1923.0,0.0013
1922.0,0.0028
1921.0,0.0014
1920.0,0.0029
1919.0,0.001
1918.0,0.0025
1917.0,0.0015
1916.0,0.0025
1915.0,0.002
1914.0,0.0025
1913.0,0.001
1912.0,0.0025
1911.0,0.003
1910.0,0.0015
1909.0,0.0021
1908.0,0.0026
1907.0,0.0015999999999999999
1906.0,0.002
1905.0,0.0029
1904.0,0.0014
1903.0,0.0014
1902.0,0.0029
1901.0,0.0009
1900.0,0.003
1899.0,0.0026
1898.0,0.0026
1897.0,0.003
1896.0,0.0009
1895.0,0.0029
1894.0,0.0014
1893.0,0.0009
1892.0,0.0015
1891.0,0.0025
1890.0,0.0015
1889.0,0.002
1888.0,0.0025
1887.0,0.002
1886.0,0.0025
1885.0,0.0024000000000000002
1884.0,0.0029
1883.0,0.0023
1882.0,0.0007999999999999999
1881.0,0.0018
1880.0,0.0013
1879.0,0.0013
1878.0,0.0028
1877.0,0.0019
1876.0,0.0029
1875.0,0.0009
1874.0,0.0029
1873.0,0.0014
1872.0,0.0024000000000000002
1871.0,0.0025
1870.0,0.003
1869.0,0.0025
1868.0,0.002
1867.0,0.002
1866.0,0.0015
1865.0,0.002
1864.0,0.001
1863.0,0.0025
1862.0,0.0015
1861.0,0.002
1860.0,0.002
1859.0,0.0010999999999999998
1858.0,0.0021
1857.0,0.0015999999999999999
1856.0,0.0026
1855.0,0.0015999999999999999
1854.0,0.0021
1853.0,0.0010999999999999998
1852.0,0.0021
1851.0,0.0010999999999999998
1850.0,0.0032
1849.0,0.0022
1848.0,0.0027
1847.0,0.0017000000000000001
1846.0,0.0023
1845.0,0.0013
1844.0,0.0023
1843.0,0.0022
1842.0,0.0012000000000000001
1841.0,0.0032
1840.0,0.0032
1839.0,0.0012000000000000001
1838.0,0.0032
1837.0,0.0023
1836.0,0.0018
1835.0,0.0023
1834.0,0.0028
1833.0,0.0018
1832.0,0.0033
1831.0,0.0028
1830.0,0.0013999999999999998
1829.0,0.0029
1828.0,0.0034
1827.0,0.0024
1826.0,0.0023
1825.0,0.0013
1824.0,0.0017000000000000001
1823.0,0.0032
1822.0,0.0023
1821.0,0.0034
1820.0,0.0013999999999999998
1819.0,0.0024
1818.0,0.0029
1817.0,0.002
1816.0,0.0025
1815.0,0.003
1814.0,0.0025
1813.0,0.003
1812.0,0.0025
1811.0,0.0035
1810.0,0.002
1809.0,0.0018999999999999998
1808.0,0.0024
1807.0,0.0029
1806.0,0.0024
1805.0,0.002
1804.0,0.0015
1803.0,0.0015999999999999999
1802.0,0.0026
1801.0,0.0027
1800.0,0.0033
1799.0,0.0018
1798.0,0.0033
1797.0,0.0033
1796.0,0.0028
1795.0,0.0018
1794.0,0.0023
1793.0,0.0028
1792.0,0.0034
1791.0,0.0024
1790.0,0.0039
1789.0,0.0029
1788.0,0.0024
1787.0,0.0024
1786.0,0.0039
1785.0,0.0029
1784.0,0.0024
1783.0,0.004
1782.0,0.004
1781.0,0.002
1780.0,0.0026
1779.0,0.0031
1778.0,0.0031
1777.0,0.0037
1776.0,0.0027
1775.0,0.0032
1774.0,0.0022
1773.0,0.0032
1772.0,0.0028
1771.0,0.0023
1770.0,0.0023
1769.0,0.0033
1768.0,0.0038
1767.0,0.0038
1766.0,0.0023
1765.0,0.0038
1764.0,0.0023
1763.0,0.0023
1762.0,0.0038
1761.0,0.0033
1760.0,0.0033
1759.0,0.0023
1758.0,0.0028
1757.0,0.0034
1756.0,0.0039
1755.0,0.0038
1754.0,0.0038
1753.0,0.0033
1752.0,0.0033
1751.0,0.0033
1750.0,0.0023
1749.0,0.004399999999999999
1748.0,0.0024
1747.0,0.0034
1746.0,0.0034
1745.0,0.004399999999999999
1744.0,0.0024
1743.0,0.0039
1742.0,0.0034
1741.0,0.0034
1740.0,0.0025
1739.0,0.004
1738.0,0.003
1737.0,0.0035
1736.0,0.0025
1735.0,0.004
1734.0,0.0045000000000000005
1733.0,0.004399999999999999
1732.0,0.0038
1731.0,0.0033
1730.0,0.0039
1729.0,0.004399999999999999
1728.0,0.0045000000000000005
1727.0,0.0046
1726.0,0.0026
1725.0,0.0037
1724.0,0.0043
1723.0,0.0029
1722.0,0.003
1721.0,0.0046
1720.0,0.0031999999999999997
1719.0,0.0042
1718.0,0.0031999999999999997
1717.0,0.0048000000000000004
1716.0,0.0054
1715.0,0.0034999999999999996
1714.0,0.0045
1713.0,0.0036
1712.0,0.0052
1711.0,0.005299999999999999
1710.0,0.0048
1709.0,0.0054
1708.0,0.005
1707.0,0.0061
1706.0,0.004699999999999999
1705.0,0.004699999999999999
1704.0,0.0058
1703.0,0.005900000000000001
1702.0,0.0049
1701.0,0.004999999999999999
1700.0,0.0045
1699.0,0.0060999999999999995
1698.0,0.0067
1697.0,0.0048
1696.0,0.0059
1695.0,0.006500000000000001
1694.0,0.0061
1693.0,0.0061
1692.0,0.0072
1691.0,0.0058
1690.0,0.0069
1689.0,0.006999999999999999
1688.0,0.0056
1687.0,0.0067
1686.0,0.0057
1685.0,0.0063
1684.0,0.0079
1683.0,0.0079
1682.0,0.0075
1681.0,0.0061
1680.0,0.0072
1679.0,0.0063
1678.0,0.0068000000000000005
1677.0,0.0065
1676.0,0.0086
1675.0,0.007299999999999999
1674.0,0.008900000000000002
1673.0,0.0075
1672.0,0.0085
1671.0,0.0070999999999999995
1670.0,0.0093
1669.0,0.0089
1668.0,0.007500000000000001
1667.0,0.0086
1666.0,0.0086
1665.0,0.0087
1664.0,0.0088
1663.0,0.0089
1662.0,0.0084
1661.0,0.0095
1660.0,0.008499999999999999
1659.0,0.0095
1658.0,0.009999999999999998
1657.0,0.009600000000000001
1656.0,0.0081
1655.0,0.0097
1654.0,0.0097
1653.0,0.0093
1652.0,0.0093
1651.0,0.0098
1650.0,0.0093
1649.0,0.008299999999999998
1648.0,0.0103
1647.0,0.008199999999999999
1646.0,0.0102
1645.0,0.010100000000000001
1644.0,0.009600000000000001
1643.0,0.0086
1642.0,0.010100000000000001
1641.0,0.010100000000000001
1640.0,0.009600000000000001
1639.0,0.010100000000000001
1638.0,0.0095
1637.0,0.008499999999999999
1636.0,0.0095
1635.0,0.009999999999999998
1634.0,0.008499999999999999
1633.0,0.0079
1632.0,0.0094
1631.0,0.009899999999999999
1630.0,0.0078000000000000005
1629.0,0.008199999999999999
1628.0,0.0092
1627.0,0.0081
1626.0,0.007500000000000001
1625.0,0.0085
1624.0,0.009000000000000001
1623.0,0.0089
1622.0,0.007899999999999999
1621.0,0.0088
1620.0,0.0083
1619.0,0.0073
1618.0,0.0077
1617.0,0.007
1616.0,0.0074
1615.0,0.0077
1614.0,0.006999999999999999
1613.0,0.0079
1612.0,0.0079
1611.0,0.0073
1610.0,0.0073
1609.0,0.008400000000000001
1608.0,0.008
1607.0,0.0081
1606.0,0.0072
1605.0,0.0078
1604.0,0.006900000000000001
1603.0,0.0075
1602.0,0.0086
1601.0,0.007200000000000001
1600.0,0.0088
1599.0,0.0084
1598.0,0.007500000000000001
1597.0,0.0091
1596.0,0.0087
1595.0,0.0084
1594.0,0.0089
1593.0,0.008499999999999999
1592.0,0.008499999999999999
1591.0,0.009
1590.0,0.009
1589.0,0.0095
1588.0,0.009600000000000001
1587.0,0.010100000000000001
1586.0,0.008199999999999999
1585.0,0.0087
1584.0,0.0097
1583.0,0.008199999999999999
1582.0,0.008199999999999999
1581.0,0.0097
1580.0,0.0093
1579.0,0.0089
1578.0,0.0085
1577.0,0.009099999999999999
1576.0,0.0093
1575.0,0.0095
1574.0,0.011099999999999999
1573.0,0.0097
1572.0,0.010700000000000001
1571.0,0.0108
1570.0,0.009399999999999999
1569.0,0.0104
1568.0,0.009500000000000001
1567.0,0.0106
1566.0,0.0107
1565.0,0.011800000000000001
1564.0,0.0104
1563.0,0.0104
1562.0,0.010499999999999999
1561.0,0.012
1560.0,0.0102
1559.0,0.012299999999999998
1558.0,0.0109
1557.0,0.0109
1556.0,0.0126
1555.0,0.0122
1554.0,0.010700000000000001
1553.0,0.0113
1552.0,0.011
1551.0,0.0116
1550.0,0.012700000000000001
1549.0,0.0128
1548.0,0.0114
1547.0,0.013500000000000002
1546.0,0.0116
1545.0,0.0128
1544.0,0.0129
1543.0,0.013999999999999999
1542.0,0.014100000000000001
1541.0,0.0143
1540.0,0.0135
1539.0,0.0142
1538.0,0.0138
1537.0,0.0139
1536.0,0.0135
1535.0,0.0141
1534.0,0.0133
1533.0,0.0154
1532.0,0.0146
1531.0,0.0157
1530.0,0.0158
1529.0,0.0159
1528.0,0.015600000000000001
1527.0,0.015799999999999998
1526.0,0.016
1525.0,0.0166
1524.0,0.0167
1523.0,0.015300000000000001
1522.0,0.0148
1521.0,0.0164
1520.0,0.0159
1519.0,0.016800000000000002
1518.0,0.016
1517.0,0.014100000000000001
1516.0,0.0152
1515.0,0.0138
1514.0,0.014
1513.0,0.0139
1512.0,0.0131
1511.0,0.015000000000000001
1510.0,0.015
1509.0,0.015300000000000001
1508.0,0.0168
1507.0,0.0181
1506.0,0.0202
1505.0,0.0196
1504.0,0.0218
1503.0,0.0224
1502.0,0.0224
1501.0,0.022
1500.0,0.022199999999999998
1499.0,0.0234
1498.0,0.0236
1497.0,0.024999999999999998
1496.0,0.027
1495.0,0.0273
1494.0,0.027
1493.0,0.0283
1492.0,0.0292
1491.0,0.0318
1490.0,0.032
1489.0,0.033800000000000004
1488.0,0.0347
1487.0,0.034999999999999996
1486.0,0.0364
1485.0,0.037899999999999996
1484.0,0.0415
1483.0,0.0422
1482.0,0.044
1481.0,0.045
1480.0,0.0474
1479.0,0.0497
1478.0,0.0525
1477.0,0.0525
1476.0,0.056
1475.0,0.0574
1474.0,0.0606
1473.0,0.0633
1472.0,0.0655
1471.0,0.0668
1470.0,0.0692
1469.0,0.0704
1468.0,0.0716
1467.0,0.0753
1466.0,0.0772
1465.0,0.0782
1464.0,0.0796
1463.0,0.081
1462.0,0.0815
1461.0,0.084
1460.0,0.0833
1459.0,0.0855
1458.0,0.0848
1457.0,0.0867
1456.0,0.0877
1455.0,0.0863
1454.0,0.0876
1453.0,0.0879
1452.0,0.0857
1451.0,0.08549999999999999
1450.0,0.0867
1449.0,0.0852
1448.0,0.0867
1447.0,0.0867
1446.0,0.0868
1445.0,0.0865
1444.0,0.0863
1443.0,0.0862
1442.0,0.0872
1441.0,0.0882
1440.0,0.0877
1439.0,0.0903
1438.0,0.0906
1437.0,0.0916
1436.0,0.093
1435.0,0.0927
1434.0,0.0943
1433.0,0.0944
1432.0,0.0951
1431.0,0.0944
1430.0,0.0961
1429.0,0.0969
1428.0,0.0971
1427.0,0.09860000000000001
1426.0,0.0987
1425.0,0.0988
1424.0,0.101
1423.0,0.1009
1422.0,0.1013
1421.0,0.1002
1420.0,0.1021
1419.0,0.1031
1418.0,0.102
1417.0,0.1018
1416.0,0.1039
1415.0,0.1029
1414.0,0.1024
1413.0,0.104
1412.0,0.1024
1411.0,0.1033
1410.0,0.1027
1409.0,0.102
1408.0,0.1012
1407.0,0.1008
1406.0,0.1024
1405.0,0.10200000000000001
1404.0,0.1014
1403.0,0.0998
1402.0,0.0986
1401.0,0.0979
1400.0,0.0966
1399.0,0.0977
1398.0,0.0968
1397.0,0.094
1396.0,0.0952
1395.0,0.0935
1394.0,0.0923
1393.0,0.0924
1392.0,0.091
1391.0,0.0912
1390.0,0.0915
1389.0,0.0904
1388.0,0.0904
1387.0,0.092
1386.0,0.0912
1385.0,0.0919
1384.0,0.0912
1383.0,0.0916
1382.0,0.093
1381.0,0.0929
1380.0,0.0937
1379.0,0.0939
1378.0,0.0945
1377.0,0.0945
1376.0,0.0948
1375.0,0.0924
1374.0,0.0928
1373.0,0.091
1372.0,0.0907
1371.0,0.0897
1370.0,0.0897
1369.0,0.0871
1368.0,0.0866
1367.0,0.0865
1366.0,0.0844
1365.0,0.0845
1364.0,0.0823
1363.0,0.0816
1362.0,0.08310000000000001
1361.0,0.0821
1360.0,0.0807
1359.0,0.0798
1358.0,0.0806
1357.0,0.0794
1356.0,0.0797
1355.0,0.0801
1354.0,0.08
1353.0,0.0801
1352.0,0.0802
1351.0,0.0804
1350.0,0.0806
1349.0,0.0814
1348.0,0.0803
1347.0,0.0814
1346.0,0.082
1345.0,0.0833
1344.0,0.0836
1343.0,0.0859
1342.0,0.0846
1341.0,0.087
1340.0,0.0868
1339.0,0.0891
1338.0,0.0884
1337.0,0.0895
1336.0,0.0906
1335.0,0.091
1334.0,0.0898
1333.0,0.0906
1332.0,0.0918
1331.0,0.0919
1330.0,0.0915
1329.0,0.0914
1328.0,0.0907
1327.0,0.0904
1326.0,0.0906
1325.0,0.0912
1324.0,0.0898
1323.0,0.0898
1322.0,0.0888
1321.0,0.0873
1320.0,0.0872
1319.0,0.0865
1318.0,0.0873
1317.0,0.0845
1316.0,0.0857
1315.0,0.0844
1314.0,0.0841
1313.0,0.0824
1312.0,0.0827
1311.0,0.081
1310.0,0.0814
1309.0,0.0799
1308.0,0.0784
1307.0,0.0785
1306.0,0.0792
1305.0,0.078
1304.0,0.0794
1303.0,0.0777
1302.0,0.0772
1301.0,0.0787
1300.0,0.0782
1299.0,0.0782
1298.0,0.0773
1297.0,0.0778
1296.0,0.0779
1295.0,0.0785
1294.0,0.0786
1293.0,0.07970000000000001
1292.0,0.0787
1291.0,0.0792
1290.0,0.0792
1289.0,0.0782
1288.0,0.0796
1287.0,0.079
1286.0,0.0793
1285.0,0.0776
1284.0,0.0773
1283.0,0.078
1282.0,0.0776
1281.0,0.0778
1280.0,0.0764
1279.0,0.0765
1278.0,0.0755
1277.0,0.0751
1276.0,0.0735
1275.0,0.0745
1274.0,0.0724
1273.0,0.0718
1272.0,0.0712
1271.0,0.0721
1270.0,0.0719
1269.0,0.0702
1268.0,0.0701
1267.0,0.0679
1266.0,0.0673
1265.0,0.06709999999999999
1264.0,0.0679
1263.0,0.0653
1262.0,0.0661
1261.0,0.066
1260.0,0.0634
1259.0,0.0638
1258.0,0.0633
1257.0,0.0634
1256.0,0.0615
1255.0,0.0622
1254.0,0.0626
1253.0,0.0616
1252.0,0.0616
1251.0,0.0612
1250.0,0.0619
1249.0,0.062200000000000005
1248.0,0.0641
1247.0,0.0641
1246.0,0.06369999999999999
1245.0,0.0649
1244.0,0.0667
1243.0,0.0666
1242.0,0.0675
1241.0,0.0674
1240.0,0.0684
1239.0,0.0702
1238.0,0.072
1237.0,0.0727
1236.0,0.0714
1235.0,0.07390000000000001
1234.0,0.0729
1233.0,0.0732
1232.0,0.073
1231.0,0.0747
1230.0,0.07339999999999999
1229.0,0.0746
1228.0,0.0747
1227.0,0.0753
1226.0,0.0737
1225.0,0.0752
1224.0,0.0751
1223.0,0.0751
1222.0,0.0745
1221.0,0.0754
1220.0,0.0737
1219.0,0.075
1218.0,0.0728
1217.0,0.0731
1216.0,0.07440000000000001
1215.0,0.0727
1214.0,0.0725
1213.0,0.0722
1212.0,0.0735
1211.0,0.0716
1210.0,0.0713
1209.0,0.0719
1208.0,0.0706
1207.0,0.0697
1206.0,0.0692
1205.0,0.0691
1204.0,0.0695
1203.0,0.0673
1202.0,0.067
1201.0,0.0667
1200.0,0.0658
1199.0,0.0647
1198.0,0.0641
1197.0,0.061399999999999996
1196.0,0.0606
1195.0,0.0597
1194.0,0.0572
1193.0,0.0562
1192.0,0.054
1191.0,0.0528
1190.0,0.0521
1189.0,0.05
1188.0,0.0473
1187.0,0.0468
1186.0,0.0443
1185.0,0.045
1184.0,0.0429
1183.0,0.0418
1182.0,0.0403
1181.0,0.0408
1180.0,0.0384
1179.0,0.039
1178.0,0.0377
1177.0,0.0353
1176.0,0.0351
1175.0,0.0358
1174.0,0.0352
1173.0,0.0346
1172.0,0.0326
1171.0,0.0326
1170.0,0.031599999999999996
1169.0,0.0322
1168.0,0.0318
1167.0,0.0305
1166.0,0.031200000000000002
1165.0,0.0295
1164.0,0.0307
1163.0,0.031
1162.0,0.0308
1161.0,0.0296
1160.0,0.0291
1159.0,0.0293
1158.0,0.0307
1157.0,0.0318
1156.0,0.031
1155.0,0.0331
1154.0,0.034
1153.0,0.0367
1152.0,0.038400000000000004
1151.0,0.0394
1150.0,0.0443
1149.0,0.0468
1148.0,0.0505
1147.0,0.0533
1146.0,0.0564
1145.0,0.0595
1144.0,0.0623
1143.0,0.0639
1142.0,0.0679
1141.0,0.0687
1140.0,0.0708
1139.0,0.0742
1138.0,0.0752
1137.0,0.0765
1136.0,0.0771
1135.0,0.0779
1134.0,0.0791
1133.0,0.0782
1132.0,0.0808
1131.0,0.08
1130.0,0.081
1129.0,0.0825
1128.0,0.0844
1127.0,0.087
1126.0,0.0901
1125.0,0.0935
1124.0,0.0978
1123.0,0.1032
1122.0,0.1079
1121.0,0.1144
1120.0,0.1192
1119.0,0.1255
1118.0,0.1312
1117.0,0.1377
1116.0,0.1413
1115.0,0.14780000000000001
1114.0,0.1496
1113.0,0.1527
1112.0,0.1556
1111.0,0.1572
1110.0,0.158
1109.0,0.1591
1108.0,0.157
1107.0,0.1563
1106.0,0.1556
1105.0,0.1531
1104.0,0.1505
1103.0,0.1477
1102.0,0.1459
1101.0,0.1437
1100.0,0.1417
1099.0,0.14150000000000001
1098.0,0.1386
1097.0,0.1386
1096.0,0.1364
1095.0,0.1374
1094.0,0.1378
1093.0,0.137
1092.0,0.1366
1091.0,0.1384
1090.0,0.139
1089.0,0.1403
1088.0,0.1414
1087.0,0.1436
1086.0,0.1469
1085.0,0.1469
1084.0,0.1494
1083.0,0.1513
1082.0,0.1527
1081.0,0.155
1080.0,0.1583
1079.0,0.1579
1078.0,0.1603
1077.0,0.1616
1076.0,0.162
1075.0,0.1632
1074.0,0.1649
1073.0,0.1662
1072.0,0.1692
1071.0,0.171
1070.0,0.173
1069.0,0.1735
1068.0,0.1785
1067.0,0.1804
1066.0,0.186
1065.0,0.1907
1064.0,0.1958
1063.0,0.2014
1062.0,0.2071
1061.0,0.2162
1060.0,0.2235
1059.0,0.233
1058.0,0.2437
1057.0,0.253
1056.0,0.2651
1055.0,0.2758
1054.0,0.287
1053.0,0.3014
1052.0,0.3155
1051.0,0.328
1050.0,0.3429
1049.0,0.3588
1048.0,0.3719
1047.0,0.3866
1046.0,0.402
1045.0,0.4157
1044.0,0.4294
1043.0,0.445
1042.0,0.45589999999999997
1041.0,0.4689
1040.0,0.4818
1039.0,0.4925
1038.0,0.502
1037.0,0.5077
1036.0,0.5149
1035.0,0.5184000000000001
1034.0,0.5202000000000001
1033.0,0.5209999999999999
1032.0,0.5179
1031.0,0.5129
1030.0,0.508
1029.0,0.4972
1028.0,0.4865
1027.0,0.4734
1026.0,0.4581
1025.0,0.443
1024.0,0.4242
1023.0,0.4056
1022.0,0.3863
1021.0,0.3634
1020.0,0.3433
1019.0,0.3231
1018.0,0.3013
1017.0,0.2823
1016.0,0.2635
1015.0,0.2444
1014.0,0.2294
1013.0,0.2143
1012.0,0.2038
1011.0,0.1938
1010.0,0.1842
1009.0,0.1787
1008.0,0.1752
1007.0,0.1724
1006.0,0.1721
1005.0,0.1718
1004.0,0.1741
1003.0,0.1763
1002.0,0.1804
1001.0,0.18359999999999999
1000.0,0.1888
999.0,0.1952
998.0,0.1994
997.0,0.2043
996.0,0.2101
995.0,0.2156
994.0,0.2198
993.0,0.2216
992.0,0.2256
991.0,0.2254
990.0,0.2233
989.0,0.2188
988.0,0.2156
987.0,0.2079
986.0,0.2003
985.0,0.1923
984.0,0.1851
983.0,0.177
982.0,0.1707
981.0,0.1664
980.0,0.1625
979.0,0.1588
978.0,0.1535
977.0,0.152
976.0,0.1476
975.0,0.1446
974.0,0.142
973.0,0.1385
972.0,0.1328
971.0,0.1271
970.0,0.1214
969.0,0.1153
968.0,0.1095
967.0,0.1036
966.0,0.0978
965.0,0.0919
964.0,0.0864
963.0,0.0804
962.0,0.0766
961.0,0.0734
960.0,0.0699
959.0,0.067
958.0,0.0659
957.0,0.0656
956.0,0.066
955.0,0.0656
954.0,0.0677
953.0,0.0679
952.0,0.0706
951.0,0.0725
950.0,0.0749
949.0,0.0781
948.0,0.0788
947.0,0.0812
946.0,0.0816
945.0,0.0828
944.0,0.08259999999999999
943.0,0.0851
942.0,0.0845
941.0,0.0888
940.0,0.0915
939.0,0.09620000000000001
938.0,0.0993
937.0,0.1053
936.0,0.113
935.0,0.1196
934.0,0.1273
933.0,0.134
932.0,0.1416
931.0,0.1495
930.0,0.1546
929.0,0.1619
928.0,0.1679
927.0,0.1718
926.0,0.1781
925.0,0.1815
924.0,0.18359999999999999
923.0,0.1855
922.0,0.1873
921.0,0.1879
920.0,0.1844
919.0,0.1838
918.0,0.1781
917.0,0.1736
916.0,0.1683
915.0,0.1637
914.0,0.1571
913.0,0.1485
912.0,0.1433
911.0,0.1356
910.0,0.1278
909.0,0.1218
908.0,0.114
907.0,0.1065
906.0,0.1023
905.0,0.0961
904.0,0.0913
903.0,0.0847
902.0,0.0805
901.0,0.0762
900.0,0.0718
899.0,0.0691
898.0,0.0654
897.0,0.0629
896.0,0.0594
895.0,0.0566
894.0,0.0557
893.0,0.0545
892.0,0.0533
891.0,0.0523
890.0,0.0506
889.0,0.051500000000000004
888.0,0.0492
887.0,0.0492
886.0,0.0509
885.0,0.0504
884.0,0.0512
883.0,0.0539
882.0,0.0533
881.0,0.0572
880.0,0.0594
879.0,0.0614
878.0,0.0627
877.0,0.068
876.0,0.06949999999999999
875.0,0.0748
874.0,0.0781
873.0,0.0823
872.0,0.0848
871.0,0.0875
870.0,0.0905
869.0,0.0947
868.0,0.0976
867.0,0.09809999999999999
866.0,0.1001
865.0,0.1018
864.0,0.1017
863.0,0.1025
862.0,0.1032
861.0,0.1035
860.0,0.1065
859.0,0.107
858.0,0.1067
857.0,0.1085
856.0,0.1116
855.0,0.1118
854.0,0.1151
853.0,0.1149
852.0,0.1183
851.0,0.1193
850.0,0.1216
849.0,0.1243
848.0,0.1287
847.0,0.1315
846.0,0.1347
845.0,0.1389
844.0,0.1433
843.0,0.14679999999999999
842.0,0.152
841.0,0.1555
840.0,0.1576
839.0,0.1574
838.0,0.1555
837.0,0.1514
836.0,0.1464
835.0,0.1384
834.0,0.13
833.0,0.122
832.0,0.114
831.0,0.106
830.0,0.0996
829.0,0.0949
828.0,0.0934
827.0,0.0908
826.0,0.0877
825.0,0.0864
824.0,0.0866
823.0,0.0862
822.0,0.0878
821.0,0.0874
820.0,0.0881
819.0,0.0877
818.0,0.0886
817.0,0.0874
816.0,0.0861
815.0,0.0875
814.0,0.0874
813.0,0.0865
812.0,0.0879
811.0,0.0886
810.0,0.0891
809.0,0.0893
808.0,0.0917
807.0,0.0919
806.0,0.0946
805.0,0.094
804.0,0.0957
803.0,0.0949
802.0,0.0961
801.0,0.0946
800.0,0.0941
799.0,0.0934
798.0,0.0942
797.0,0.0931
796.0,0.0931
795.0,0.0914
794.0,0.0909
793.0,0.091
792.0,0.0914
791.0,0.0919
790.0,0.0945
789.0,0.0952
788.0,0.096
787.0,0.0957
786.0,0.096
785.0,0.0972
784.0,0.097
783.0,0.0982
782.0,0.1004
781.0,0.0996
780.0,0.1017
779.0,0.1009
778.0,0.10149999999999999
777.0,0.1032
776.0,0.1039
775.0,0.1033
774.0,0.1056
773.0,0.107
772.0,0.1064
771.0,0.1082
770.0,0.1074
769.0,0.1081
768.0,0.109
767.0,0.1104
766.0,0.1114
765.0,0.1119
764.0,0.1128
763.0,0.11359999999999999
762.0,0.1163
761.0,0.1167
760.0,0.1177
759.0,0.1187
758.0,0.1201
757.0,0.12
756.0,0.1219
755.0,0.1219
754.0,0.12380000000000001
753.0,0.1229
752.0,0.1251
751.0,0.1272
750.0,0.1272
749.0,0.128
748.0,0.1294
747.0,0.1309
746.0,0.131
745.0,0.1327
744.0,0.1345
743.0,0.1357
742.0,0.1358
741.0,0.1364
740.0,0.1376
739.0,0.1388
738.0,0.1398
737.0,0.1404
736.0,0.143
735.0,0.1437
734.0,0.1447
733.0,0.1458
732.0,0.1469
731.0,0.1489
730.0,0.15
729.0,0.1497
728.0,0.1505
727.0,0.1528
726.0,0.1545
725.0,0.1553
724.0,0.1576
723.0,0.1588
722.0,0.15940000000000001
721.0,0.159
720.0,0.1621
719.0,0.1632
718.0,0.1633
717.0,0.1635
716.0,0.1662
715.0,0.1665
714.0,0.1687
713.0,0.1684
712.0,0.1717
711.0,0.1725
710.0,0.1723
709.0,0.1751
708.0,0.175
707.0,0.1774
706.0,0.1795
705.0,0.1807
704.0,0.182
703.0,0.1813
702.0,0.1841
701.0,0.186
700.0,0.1859
699.0,0.1882
698.0,0.189
697.0,0.1899
696.0,0.1915
695.0,0.1932
694.0,0.1955
693.0,0.1974
692.0,0.1985
691.0,0.2004
690.0,0.2031
689.0,0.205
688.0,0.2073
687.0,0.2102
686.0,0.2127
685.0,0.2138
684.0,0.2176
683.0,0.2209
682.0,0.2222
681.0,0.2265
680.0,0.2288
679.0,0.2319
678.0,0.234
677.0,0.2375
676.0,0.24
675.0,0.24
674.0,0.2436
673.0,0.2435
672.0,0.2448
671.0,0.2462
670.0,0.2466
669.0,0.2474
668.0,0.2485
667.0,0.24930000000000002
666.0,0.2505
665.0,0.252
664.0,0.2529
663.0,0.2528
662.0,0.255
661.0,0.2548
660.0,0.2564
659.0,0.258
658.0,0.2585
657.0,0.2586
656.0,0.2615
655.0,0.2605
654.0,0.2609
653.0,0.2622
652.0,0.2632
651.0,0.263
650.0,0.262
