Created as New Dataset,Sample 004 By CHEM 370 Date Monday, March 02 2020
cm-1,A
4000.0,0.0003
3999.0,-0.0007000000000000001
3998.0,0.0003
3997.0,-0.0007000000000000001
3996.0,0.0003
3995.0,-0.00020000000000000004
3994.0,0.0013
3993.0,-0.00020000000000000004
3992.0,-0.00020000000000000004
3991.0,0.0013
3990.0,0.0003
3989.0,0.0002
3988.0,0.0002
3987.0,0.0003
3986.0,0.0013
3985.0,0.0013
3984.0,0.0003
3983.0,-0.0007000000000000001
3982.0,0.0002
3981.0,-0.00030000000000000003
3980.0,0.0001
3979.0,0.0006000000000000001
3978.0,0.0001
3977.0,-0.0004
3976.0,-0.0009
3975.0,0.0012000000000000001
3974.0,0.0012000000000000001
3973.0,-0.0004
3972.0,0.0006000000000000001
3971.0,-0.0004
3970.0,0.0011
3969.0,0.0011
3968.0,0.0006000000000000001
3967.0,-0.0009
3966.0,0.0006000000000000001
3965.0,0.0001
3964.0,0.0001
3963.0,0.0006000000000000001
3962.0,0.0001
3961.0,-0.0004
3960.0,-0.0009
3959.0,0.0006000000000000001
3958.0,0.0001
3957.0,-0.001
3956.0,-0.001
3955.0,0.0005
3954.0,-0.001
3953.0,0.0005
3952.0,0.0
3951.0,0.0
3950.0,-0.001
3949.0,-0.0001
3948.0,-0.0011
3947.0,0.0009
3946.0,0.001
3945.0,-0.0005
3944.0,-0.0011
3943.0,-0.0001
3942.0,0.0004
3941.0,-0.0011
3940.0,-0.001
3939.0,0.0
3938.0,0.001
3937.0,-0.001
3936.0,0.0005
3935.0,-0.001
3934.0,0.001
3933.0,-0.001
3932.0,-0.001
3931.0,0.0
3930.0,-0.0001
3929.0,-0.0001
3928.0,-0.0011
3927.0,-0.0011
3926.0,-0.0011
3925.0,0.0004
3924.0,-0.0011
3923.0,-0.0011
3922.0,-0.0002
3921.0,0.00030000000000000003
3920.0,0.00030000000000000003
3919.0,-0.0002
3918.0,0.00030000000000000003
3917.0,-0.0001
3916.0,0.0009
3915.0,-0.001
3914.0,0.0005
3913.0,0.0005
3912.0,0.0005
3911.0,0.0009
3910.0,-0.0001
3909.0,-0.0012000000000000001
3908.0,0.0008
3907.0,0.0008
3906.0,0.0007000000000000001
3905.0,0.00030000000000000003
3904.0,0.00030000000000000003
3903.0,-0.0002
3902.0,0.00030000000000000003
3901.0,-0.0002
3900.0,-0.0003
3899.0,-0.0013
3898.0,-0.0003
3897.0,-0.0007999999999999999
3896.0,-0.0003
3895.0,-0.0002
3894.0,0.0008
3893.0,-0.0002
3892.0,-0.0003
3891.0,-0.0013
3890.0,-0.0013
3889.0,0.0007000000000000001
3888.0,-0.0003
3887.0,0.00030000000000000003
3886.0,0.0008
3885.0,0.0008
3884.0,-0.0012000000000000001
3883.0,-0.0012000000000000001
3882.0,-0.0003
3881.0,-0.0003
3880.0,-0.0013
3879.0,-0.0007999999999999999
3878.0,-0.0013
3877.0,0.00020000000000000004
3876.0,-0.0003
3875.0,-0.0013
3874.0,0.0006000000000000001
3873.0,9.999999999999999e-5
3872.0,-0.0004
3871.0,-0.0004
3870.0,-0.0009
3869.0,-0.0014
3868.0,-0.0014
3867.0,-0.0003
3866.0,-0.0003
3865.0,0.00020000000000000004
3864.0,-0.0013
3863.0,0.0007000000000000001
3862.0,0.0007000000000000001
3861.0,-0.0007
3860.0,-0.0007
3859.0,-0.0007
3858.0,-0.0003
3857.0,0.00020000000000000004
3856.0,-0.0003
3855.0,-0.0013
3854.0,-0.0009
3853.0,-0.0009
3852.0,9.999999999999999e-5
3851.0,0.0006000000000000001
3850.0,0.00020000000000000004
3849.0,0.0007000000000000001
3848.0,-0.0007999999999999999
3847.0,0.00020000000000000004
3846.0,0.0007000000000000001
3845.0,-0.0007999999999999999
3844.0,0.00020000000000000004
3843.0,0.0007000000000000001
3842.0,-0.0003
3841.0,0.0007000000000000001
3840.0,-0.0013
3839.0,-0.0013
3838.0,-0.0007999999999999999
3837.0,-0.0012000000000000001
3836.0,0.0008
3835.0,-0.0012000000000000001
3834.0,-0.0002
3833.0,0.0007000000000000001
3832.0,0.0007000000000000001
3831.0,-0.0003
3830.0,0.00020000000000000004
3829.0,0.00020000000000000004
3828.0,-0.0013
3827.0,-0.0003
3826.0,0.00020000000000000004
3825.0,0.00020000000000000004
3824.0,-0.0014
3823.0,-0.0007999999999999999
3822.0,-0.0003
3821.0,0.00020000000000000004
3820.0,-0.0013
3819.0,0.0007000000000000001
3818.0,-0.0003
3817.0,-0.0003
3816.0,-0.0003
3815.0,0.00020000000000000004
3814.0,-0.0007999999999999999
3813.0,-0.0007999999999999999
3812.0,-0.0007999999999999999
3811.0,-0.0013
3810.0,0.00020000000000000004
3809.0,0.0007000000000000001
3808.0,0.00020000000000000004
3807.0,-0.0014
3806.0,-0.0004
3805.0,9.999999999999999e-5
3804.0,0.0006000000000000001
3803.0,0.0007000000000000001
3802.0,0.00020000000000000004
3801.0,0.0007000000000000001
3800.0,-0.0013
3799.0,-0.0007999999999999999
3798.0,0.00020000000000000004
3797.0,0.0006000000000000001
3796.0,9.999999999999999e-5
3795.0,9.999999999999999e-5
3794.0,-0.0003
3793.0,-0.0007999999999999999
3792.0,0.0006000000000000001
3791.0,-0.0009
3790.0,-0.0009
3789.0,-0.0009
3788.0,-0.0009
3787.0,9.999999999999999e-5
3786.0,-0.0009
3785.0,-0.0013
3784.0,-0.0003
3783.0,-0.0007
3782.0,-0.0002
3781.0,-0.0011
3780.0,-0.0006000000000000001
3779.0,0.0008
3778.0,0.0008
3777.0,-0.0002
3776.0,0.0008
3775.0,-0.0003
3774.0,0.0007000000000000001
3773.0,-0.0013
3772.0,-0.0003
3771.0,0.00030000000000000003
3770.0,-0.0007
3769.0,-0.0007
3768.0,-0.0007
3767.0,0.0008
3766.0,0.00030000000000000003
3765.0,-0.0003
3764.0,-0.0013
3763.0,-0.0007999999999999999
3762.0,0.00020000000000000004
3761.0,-0.0013
3760.0,-0.0013
3759.0,-0.0003
3758.0,-0.0007999999999999999
3757.0,-0.0007999999999999999
3756.0,-0.0013
3755.0,0.0007000000000000001
3754.0,-0.0003
3753.0,0.0007000000000000001
3752.0,0.00020000000000000004
3751.0,-0.0003
3750.0,0.00020000000000000004
3749.0,-0.0003
3748.0,0.0007000000000000001
3747.0,-0.0007999999999999999
3746.0,-0.0007999999999999999
3745.0,-0.0012000000000000001
3744.0,-0.0012000000000000001
3743.0,0.0008
3742.0,-0.0007
3741.0,0.00030000000000000003
3740.0,-0.0012000000000000001
3739.0,-0.0002
3738.0,-0.0002
3737.0,-0.0011
3736.0,-0.0006000000000000001
3735.0,0.0004
3734.0,0.0004
3733.0,0.0009
3732.0,0.0004
3731.0,0.0004
3730.0,-0.0006000000000000001
3729.0,-0.0006000000000000001
3728.0,-0.0001
3727.0,0.0004
3726.0,-0.0005
3725.0,0.0005
3724.0,0.001
3723.0,0.0004
3722.0,-0.0001
3721.0,-0.0012000000000000001
3720.0,0.00030000000000000003
3719.0,0.00030000000000000003
3718.0,-0.0012000000000000001
3717.0,-0.0012000000000000001
3716.0,-0.0002
3715.0,-0.0001
3714.0,-0.0011
3713.0,0.0004
3712.0,-0.0001
3711.0,0.0004
3710.0,-0.0011
3709.0,-0.0001
3708.0,-0.0001
3707.0,0.0009
3706.0,-0.001
3705.0,-0.001
3704.0,-0.0005
3703.0,-0.001
3702.0,0.0
3701.0,-0.0005
3700.0,-0.001
3699.0,0.0
3698.0,0.0
3697.0,0.0006000000000000001
3696.0,-0.0004
3695.0,-0.0009
3694.0,0.0011
3693.0,0.0
3692.0,0.0005
3691.0,0.0005
3690.0,-0.001
3689.0,0.0001
3688.0,0.0011
3687.0,0.0011
3686.0,0.0001
3685.0,-0.0009
3684.0,-0.00030000000000000003
3683.0,0.0002
3682.0,0.0002
3681.0,-0.0007000000000000001
3680.0,-0.00020000000000000004
3679.0,0.0003
3678.0,-0.0007000000000000001
3677.0,-9.999999999999999e-5
3676.0,-9.999999999999999e-5
3675.0,0.0004
3674.0,-0.0006000000000000001
3673.0,0.0004
3672.0,0.0003
3671.0,0.0007999999999999999
3670.0,-9.999999999999999e-5
3669.0,0.0
3668.0,0.0015
3667.0,-0.0005
3666.0,0.0005
3665.0,0.0005
3664.0,0.0015
3663.0,0.0015999999999999999
3662.0,-0.0004000000000000001
3661.0,0.0012000000000000001
3660.0,-0.00030000000000000003
3659.0,0.0007
3658.0,0.0013
3657.0,-0.00019999999999999998
3656.0,0.0009
3655.0,0.0014
3654.0,0.0015
3653.0,0.0005
3652.0,0.0016
3651.0,0.0006000000000000001
3650.0,0.0012
3649.0,0.00019999999999999987
3648.0,0.0002999999999999999
3647.0,0.0013
3646.0,0.0024000000000000002
3645.0,0.0024000000000000002
3644.0,0.002
3643.0,0.0015
3642.0,0.0015
3641.0,0.0021000000000000003
3640.0,0.0012
3639.0,0.0028
3638.0,0.0009
3637.0,0.0015
3636.0,0.0015999999999999999
3635.0,0.0031
3634.0,0.0032
3633.0,0.0013
3632.0,0.0018999999999999998
3631.0,0.002
3630.0,0.0036
3629.0,0.0027
3628.0,0.0033
3627.0,0.0024
3626.0,0.0034
3625.0,0.002
3624.0,0.0031
3623.0,0.0027
3622.0,0.0038
3621.0,0.0043
3620.0,0.004399999999999999
3619.0,0.0031
3618.0,0.0032
3617.0,0.0029
3616.0,0.0036000000000000003
3615.0,0.0048000000000000004
3614.0,0.0039000000000000003
3613.0,0.0040999999999999995
3612.0,0.0058
3611.0,0.005
3610.0,0.0042
3609.0,0.005900000000000001
3608.0,0.0066
3607.0,0.006200000000000001
3606.0,0.0054
3605.0,0.0066
3604.0,0.0063
3603.0,0.0069
3602.0,0.0076
3601.0,0.0069
3600.0,0.0061
3599.0,0.0078
3598.0,0.0076
3597.0,0.0068
3596.0,0.0070999999999999995
3595.0,0.0083
3594.0,0.009500000000000001
3593.0,0.0088
3592.0,0.008499999999999999
3591.0,0.0087
3590.0,0.01
3589.0,0.0098
3588.0,0.0101
3587.0,0.009399999999999999
3586.0,0.011699999999999999
3585.0,0.010499999999999999
3584.0,0.0107
3583.0,0.0125
3582.0,0.0118
3581.0,0.0131
3580.0,0.0123
3579.0,0.013600000000000001
3578.0,0.0119
3577.0,0.0127
3576.0,0.0126
3575.0,0.0139
3574.0,0.014700000000000001
3573.0,0.015000000000000001
3572.0,0.0148
3571.0,0.0151
3570.0,0.0165
3569.0,0.015
3568.0,0.0175
3567.0,0.0179
3566.0,0.0162
3565.0,0.018500000000000003
3564.0,0.0188
3563.0,0.0172
3562.0,0.0191
3561.0,0.019
3560.0,0.0184
3559.0,0.0188
3558.0,0.0192
3557.0,0.02
3556.0,0.0219
3555.0,0.0208
3554.0,0.0223
3553.0,0.0233
3552.0,0.0228
3551.0,0.0228
3550.0,0.022699999999999998
3549.0,0.0231
3548.0,0.0246
3547.0,0.0241
3546.0,0.0256
3545.0,0.026600000000000002
3544.0,0.025599999999999998
3543.0,0.0271
3542.0,0.0266
3541.0,0.0285
3540.0,0.029500000000000002
3539.0,0.028
3538.0,0.028499999999999998
3537.0,0.0295
3536.0,0.0315
3535.0,0.031599999999999996
3534.0,0.032600000000000004
3533.0,0.0317
3532.0,0.0322
3531.0,0.034300000000000004
3530.0,0.0344
3529.0,0.0336
3528.0,0.0357
3527.0,0.0352
3526.0,0.0363
3525.0,0.0379
3524.0,0.0369
3523.0,0.0376
3522.0,0.0387
3521.0,0.0388
3520.0,0.039
3519.0,0.0411
3518.0,0.0413
3517.0,0.0424
3516.0,0.0425
3515.0,0.0431
3514.0,0.0448
3513.0,0.0445
3512.0,0.0441
3511.0,0.0458
3510.0,0.0474
3509.0,0.0466
3508.0,0.0478
3507.0,0.0491
3506.0,0.0503
3505.0,0.0496
3504.0,0.0509
3503.0,0.0511
3502.0,0.0533
3501.0,0.0535
3500.0,0.0532
3499.0,0.053399999999999996
3498.0,0.0547
3497.0,0.0564
3496.0,0.0567
3495.0,0.0579
3494.0,0.0582
3493.0,0.0579
3492.0,0.0592
3491.0,0.0595
3490.0,0.0613
3489.0,0.0616
3488.0,0.0639
3487.0,0.0637
3486.0,0.064
3485.0,0.0658
3484.0,0.0651
3483.0,0.0674
3482.0,0.0673
3481.0,0.0697
3480.0,0.0685
3479.0,0.0698
3478.0,0.0701
3477.0,0.071
3476.0,0.0728
3475.0,0.0737
3474.0,0.0756
3473.0,0.0755
3472.0,0.0758
3471.0,0.0781
3470.0,0.0785
3469.0,0.0779
3468.0,0.0797
3467.0,0.0796
3466.0,0.082
3465.0,0.0829
3464.0,0.0843
3463.0,0.0832
3462.0,0.0841
3461.0,0.086
3460.0,0.0874
3459.0,0.0887
3458.0,0.0886
3457.0,0.09
3456.0,0.0914
3455.0,0.09230000000000001
3454.0,0.0927
3453.0,0.0931
3452.0,0.094
3451.0,0.0953
3450.0,0.0962
3449.0,0.0977
3448.0,0.0967
3447.0,0.0977
3446.0,0.1001
3445.0,0.1011
3444.0,0.101
3443.0,0.1024
3442.0,0.1034
3441.0,0.1048
3440.0,0.1053
3439.0,0.1062
3438.0,0.1082
3437.0,0.1076
3436.0,0.108
3435.0,0.1093
3434.0,0.11170000000000001
3433.0,0.1112
3432.0,0.1137
3431.0,0.1137
3430.0,0.1156
3429.0,0.1146
3428.0,0.1156
3427.0,0.11649999999999999
3426.0,0.1174
3425.0,0.1188
3424.0,0.1207
3423.0,0.1206
3422.0,0.1221
3421.0,0.1236
3420.0,0.1251
3419.0,0.126
3418.0,0.125
3417.0,0.1274
3416.0,0.12840000000000001
3415.0,0.1288
3414.0,0.1292
3413.0,0.1306
3412.0,0.132
3411.0,0.1319
3410.0,0.1329
3409.0,0.1344
3408.0,0.1349
3407.0,0.1373
3406.0,0.1377
3405.0,0.1381
3404.0,0.1401
3403.0,0.139
3402.0,0.14049999999999999
3401.0,0.1419
3400.0,0.1438
3399.0,0.1437
3398.0,0.1455
3397.0,0.1449
3396.0,0.1452
3395.0,0.1461
3394.0,0.148
3393.0,0.1499
3392.0,0.1493
3391.0,0.1497
3390.0,0.1525
3389.0,0.1524
3388.0,0.1532
3387.0,0.1536
3386.0,0.1559
3385.0,0.1558
3384.0,0.1572
3383.0,0.1586
3382.0,0.1575
3381.0,0.1599
3380.0,0.1612
3379.0,0.1615
3378.0,0.1609
3377.0,0.1632
3376.0,0.1635
3375.0,0.1638
3374.0,0.1646
3373.0,0.165
3372.0,0.1673
3371.0,0.1672
3370.0,0.1681
3369.0,0.1704
3368.0,0.1712
3367.0,0.1719
3366.0,0.1706
3365.0,0.1713
3364.0,0.174
3363.0,0.1742
3362.0,0.1754
3361.0,0.1756
3360.0,0.1764
3359.0,0.1771
3358.0,0.1763
3357.0,0.177
3356.0,0.1782
3355.0,0.1789
3354.0,0.1811
3353.0,0.1802
3352.0,0.1814
3351.0,0.1815
3350.0,0.1826
3349.0,0.1832
3348.0,0.1843
3347.0,0.1844
3346.0,0.1839
3345.0,0.1866
3344.0,0.1857
3343.0,0.1868
3342.0,0.1885
3341.0,0.1891
3340.0,0.1876
3339.0,0.1891
3338.0,0.1891
3337.0,0.19
3336.0,0.1894
3335.0,0.1909
3334.0,0.1923
3333.0,0.1918
3332.0,0.1928
3331.0,0.1922
3330.0,0.1942
3329.0,0.1946
3328.0,0.1941
3327.0,0.1935
3326.0,0.1959
3325.0,0.1963
3324.0,0.1951
3323.0,0.197
3322.0,0.1973
3321.0,0.1966
3320.0,0.197
3319.0,0.1983
3318.0,0.1976
3317.0,0.1974
3316.0,0.1986
3315.0,0.1989
3314.0,0.1982
3313.0,0.1984
3312.0,0.1982
3311.0,0.2005
3310.0,0.2008
3309.0,0.199
3308.0,0.1997
3307.0,0.2004
3306.0,0.1995
3305.0,0.1996
3304.0,0.2016
3303.0,0.2002
3302.0,0.2002
3301.0,0.1998
3300.0,0.2008
3299.0,0.2014
3298.0,0.2019
3297.0,0.2005
3296.0,0.201
3295.0,0.202
3294.0,0.202
3293.0,0.2015
3292.0,0.202
3291.0,0.2019
3290.0,0.2018
3289.0,0.2007
3288.0,0.2016
3287.0,0.2015
3286.0,0.1994
3285.0,0.2008
3284.0,0.2007
3283.0,0.2001
3282.0,0.1994
3281.0,0.1987
3280.0,0.199
3279.0,0.1993
3278.0,0.1992
3277.0,0.1986
3276.0,0.1994
3275.0,0.1978
3274.0,0.1981
3273.0,0.1983
3272.0,0.1971
3271.0,0.1987
3270.0,0.1983
3269.0,0.1974
3268.0,0.196
3267.0,0.19720000000000001
3266.0,0.1968
3265.0,0.1945
3264.0,0.195
3263.0,0.1941
3262.0,0.1947
3261.0,0.1943
3260.0,0.194
3259.0,0.1941
3258.0,0.1922
3257.0,0.1913
3256.0,0.1923
3255.0,0.1918
3254.0,0.1903
3253.0,0.1902
3252.0,0.1892
3251.0,0.1891
3250.0,0.1886
3249.0,0.1885
3248.0,0.1865
3247.0,0.1874
3246.0,0.1874
3245.0,0.1852
3244.0,0.1851
3243.0,0.1839
3242.0,0.1847
3241.0,0.1825
3240.0,0.1818
3239.0,0.1826
3238.0,0.1815
3237.0,0.1799
3236.0,0.1808
3235.0,0.1781
3234.0,0.1779
3233.0,0.1771
3232.0,0.1779
3231.0,0.1756
3230.0,0.1753
3229.0,0.1755
3228.0,0.1732
3227.0,0.1724
3226.0,0.1731
3225.0,0.1707
3224.0,0.1704
3223.0,0.1696
3222.0,0.1677
3221.0,0.1679
3220.0,0.166
3219.0,0.1657
3218.0,0.1658
3217.0,0.1639
3216.0,0.1631
3215.0,0.1622
3214.0,0.1618
3213.0,0.1603
3212.0,0.1599
3211.0,0.16
3210.0,0.1575
3209.0,0.1576
3208.0,0.1562
3207.0,0.1562
3206.0,0.1547
3205.0,0.1537
3204.0,0.1518
3203.0,0.1518
3202.0,0.1508
3201.0,0.1498
3200.0,0.1488
3199.0,0.14629999999999999
3198.0,0.14730000000000001
3197.0,0.1448
3196.0,0.1453
3195.0,0.1433
3194.0,0.1418
3193.0,0.1407
3192.0,0.1407
3191.0,0.1401
3190.0,0.1386
3189.0,0.1376
3188.0,0.135
3187.0,0.135
3186.0,0.1345
3185.0,0.1329
3184.0,0.1329
3183.0,0.1314
3182.0,0.1299
3181.0,0.12789999999999999
3180.0,0.1278
3179.0,0.1267
3178.0,0.12459999999999999
3177.0,0.1235
3176.0,0.1235
3175.0,0.1214
3174.0,0.1219
3173.0,0.1209
3172.0,0.1203
3171.0,0.1193
3170.0,0.1178
3169.0,0.1172
3168.0,0.1152
3167.0,0.11309999999999999
3166.0,0.1131
3165.0,0.1116
3164.0,0.1101
3163.0,0.1101
3162.0,0.1101
3161.0,0.1091
3160.0,0.1076
3159.0,0.1061
3158.0,0.1041
3157.0,0.1041
3156.0,0.1041
3155.0,0.1026
3154.0,0.1021
3153.0,0.0996
3152.0,0.09809999999999999
3151.0,0.0981
3150.0,0.0966
3149.0,0.0966
3148.0,0.0956
3147.0,0.0952
3146.0,0.0942
3145.0,0.0933
3144.0,0.09230000000000001
3143.0,0.0894
3142.0,0.0895
3141.0,0.089
3140.0,0.0886
3139.0,0.0872
3138.0,0.0857
3137.0,0.0844
3136.0,0.0845
3135.0,0.0832
3134.0,0.0828
3133.0,0.0825
3132.0,0.0816
3131.0,0.07869999999999999
3130.0,0.0794
3129.0,0.078
3128.0,0.0762
3127.0,0.0769
3126.0,0.0751
3125.0,0.0758
3124.0,0.074
3123.0,0.0736
3122.0,0.0723
3121.0,0.0726
3120.0,0.0718
3119.0,0.0691
3118.0,0.0703
3117.0,0.0681
3116.0,0.0668
3115.0,0.066
3114.0,0.0657
3113.0,0.0655
3112.0,0.0638
3111.0,0.0631
3110.0,0.0633
3109.0,0.0621
3108.0,0.0629
3107.0,0.0602
3106.0,0.06
3105.0,0.0608
3104.0,0.060200000000000004
3103.0,0.0576
3102.0,0.0569
3101.0,0.0578
3100.0,0.0567
3099.0,0.0566
3098.0,0.0549
3097.0,0.0553
3096.0,0.0547
3095.0,0.0541
3094.0,0.0525
3093.0,0.0529
3092.0,0.0524
3091.0,0.0513
3090.0,0.0518
3089.0,0.0492
3088.0,0.0487
3087.0,0.0487
3086.0,0.0492
3085.0,0.0482
3084.0,0.0466
3083.0,0.0476
3082.0,0.0476
3081.0,0.0451
3080.0,0.0456
3079.0,0.0446
3078.0,0.0436
3077.0,0.0436
3076.0,0.0446
3075.0,0.0432
3074.0,0.0437
3073.0,0.0412
3072.0,0.0418
3071.0,0.0403
3070.0,0.0419
3069.0,0.04
3068.0,0.0405
3067.0,0.040600000000000004
3066.0,0.0382
3065.0,0.0399
3064.0,0.0385
3063.0,0.0381
3062.0,0.0386
3061.0,0.0368
3060.0,0.0369
3059.0,0.0375
3058.0,0.0366
3057.0,0.0348
3056.0,0.0364
3055.0,0.0351
3054.0,0.0348
3053.0,0.0335
3052.0,0.0341
3051.0,0.0348
3050.0,0.033
3049.0,0.0342
3048.0,0.0319
3047.0,0.0331
3046.0,0.0332
3045.0,0.0319
3044.0,0.031100000000000003
3043.0,0.030399999999999996
3042.0,0.031599999999999996
3041.0,0.0304
3040.0,0.0306
3039.0,0.0293
3038.0,0.029599999999999998
3037.0,0.0293
3036.0,0.0296
3035.0,0.0299
3034.0,0.0297
3033.0,0.029500000000000002
3032.0,0.0288
3031.0,0.028
3030.0,0.0288
3029.0,0.0286
3028.0,0.028900000000000002
3027.0,0.0287
3026.0,0.0285
3025.0,0.027800000000000002
3024.0,0.026199999999999998
3023.0,0.028
3022.0,0.0258
3021.0,0.025599999999999998
3020.0,0.0275
3019.0,0.0264
3018.0,0.027200000000000002
3017.0,0.0256
3016.0,0.0264
3015.0,0.0253
3014.0,0.0247
3013.0,0.0256
3012.0,0.0261
3011.0,0.0251
3010.0,0.0246
3009.0,0.026
3008.0,0.024999999999999998
3007.0,0.024999999999999998
3006.0,0.0256
3005.0,0.0257
3004.0,0.0263
3003.0,0.0265
3002.0,0.0257
3001.0,0.0255
3000.0,0.0258
2999.0,0.0277
2998.0,0.0286
2997.0,0.0286
2996.0,0.0282
2995.0,0.0294
2994.0,0.0306
2993.0,0.0314
2992.0,0.0313
2991.0,0.033800000000000004
2990.0,0.033299999999999996
2989.0,0.0353
2988.0,0.034999999999999996
2987.0,0.0382
2986.0,0.037399999999999996
2985.0,0.0392
2984.0,0.0421
2983.0,0.0414
2982.0,0.0428
2981.0,0.0453
2980.0,0.0477
2979.0,0.047099999999999996
2978.0,0.0505
2977.0,0.0499
2976.0,0.0522
2975.0,0.053
2974.0,0.0537
2973.0,0.0553
2972.0,0.0568
2971.0,0.0581
2970.0,0.0583
2969.0,0.0588
2968.0,0.0581
2967.0,0.0603
2966.0,0.0593
2965.0,0.0583
2964.0,0.0583
2963.0,0.0599
2962.0,0.0594
2961.0,0.0596
2960.0,0.0599
2959.0,0.0598
2958.0,0.061900000000000004
2957.0,0.0606
2956.0,0.0629
2955.0,0.0638
2954.0,0.0633
2953.0,0.0649
2952.0,0.0671
2951.0,0.0668
2950.0,0.07
2949.0,0.0693
2948.0,0.0716
2947.0,0.073
2946.0,0.0733
2945.0,0.0751
2944.0,0.077
2943.0,0.0778
2942.0,0.0785
2941.0,0.0803
2940.0,0.0824
2939.0,0.0825
2938.0,0.0839
2937.0,0.0852
2936.0,0.0849
2935.0,0.0859
2934.0,0.0858
2933.0,0.087
2932.0,0.0861
2931.0,0.0865
2930.0,0.0872
2929.0,0.0869
2928.0,0.0844
2927.0,0.0859
2926.0,0.0834
2925.0,0.0847
2924.0,0.0819
2923.0,0.0826
2922.0,0.0817
2921.0,0.0813
2920.0,0.0804
2919.0,0.0785
2918.0,0.0781
2917.0,0.0777
2916.0,0.07680000000000001
2915.0,0.0749
2914.0,0.0745
2913.0,0.0732
2912.0,0.072
2911.0,0.0713
2910.0,0.0716
2909.0,0.0701
2908.0,0.0691
2907.0,0.0687
2906.0,0.0703
2905.0,0.0682
2904.0,0.0681
2903.0,0.0691
2902.0,0.0697
2901.0,0.0695
2900.0,0.0698
2899.0,0.0697
2898.0,0.0696
2897.0,0.0701
2896.0,0.0728
2895.0,0.0735
2894.0,0.0733
2893.0,0.0741
2892.0,0.075
2891.0,0.0753
2890.0,0.0762
2889.0,0.0781
2888.0,0.078
2887.0,0.0798
2886.0,0.0812
2885.0,0.0809
2884.0,0.0826
2883.0,0.0817
2882.0,0.0821
2881.0,0.0839
2880.0,0.0827
2879.0,0.0822
2878.0,0.08209999999999999
2877.0,0.0818
2876.0,0.0828
2875.0,0.0817
2874.0,0.0804
2873.0,0.08
2872.0,0.08
2871.0,0.0773
2870.0,0.0761
2869.0,0.0758
2868.0,0.0745
2867.0,0.0736
2866.0,0.0706
2865.0,0.0692
2864.0,0.0673
2863.0,0.0675
2862.0,0.0657
2861.0,0.0649
2860.0,0.062200000000000005
2859.0,0.0625
2858.0,0.061900000000000004
2857.0,0.0603
2856.0,0.0589
2855.0,0.0584
2854.0,0.0571
2853.0,0.0568
2852.0,0.0545
2851.0,0.0558
2850.0,0.0535
2849.0,0.0538
2848.0,0.0516
2847.0,0.0509
2846.0,0.0507
2845.0,0.0501
2844.0,0.049
2843.0,0.0505
2842.0,0.0484
2841.0,0.0488
2840.0,0.0482
2839.0,0.0477
2838.0,0.0461
2837.0,0.0471
2836.0,0.0466
2835.0,0.0441
2834.0,0.0456
2833.0,0.0451
2832.0,0.0441
2831.0,0.0431
2830.0,0.0436
2829.0,0.0412
2828.0,0.0412
2827.0,0.0407
2826.0,0.0407
2825.0,0.0412
2824.0,0.0397
2823.0,0.0383
2822.0,0.0394
2821.0,0.0384
2820.0,0.039
2819.0,0.0376
2818.0,0.0381
2817.0,0.0361
2816.0,0.0352
2815.0,0.0368
2814.0,0.0359
2813.0,0.035
2812.0,0.0341
2811.0,0.0331
2810.0,0.0342
2809.0,0.0333
2808.0,0.0334
2807.0,0.0326
2806.0,0.0312
2805.0,0.0324
2804.0,0.032100000000000004
2803.0,0.030199999999999998
2802.0,0.0299
2801.0,0.0306
2800.0,0.0292
2799.0,0.0289
2798.0,0.030100000000000002
2797.0,0.0303
2796.0,0.029
2795.0,0.0277
2794.0,0.029400000000000003
2793.0,0.0287
2792.0,0.0269
2791.0,0.0277
2790.0,0.0279
2789.0,0.026699999999999998
2788.0,0.0275
2787.0,0.0262
2786.0,0.026
2785.0,0.0268
2784.0,0.027100000000000003
2783.0,0.0249
2782.0,0.0262
2781.0,0.0256
2780.0,0.0249
2779.0,0.0242
2778.0,0.025
2777.0,0.0248
2776.0,0.0236
2775.0,0.024
2774.0,0.0248
2773.0,0.0232
2772.0,0.025
2771.0,0.0233
2770.0,0.0237
2769.0,0.0241
2768.0,0.024
2767.0,0.0223
2766.0,0.0242
2765.0,0.0236
2764.0,0.0225
2763.0,0.0224
2762.0,0.0238
2761.0,0.023700000000000002
2760.0,0.021599999999999998
2759.0,0.023
2758.0,0.0224
2757.0,0.0233
2756.0,0.0218
2755.0,0.0217
2754.0,0.0211
2753.0,0.0225
2752.0,0.0209
2751.0,0.0213
2750.0,0.0227
2749.0,0.0216
2748.0,0.0215
2747.0,0.0214
2746.0,0.0213
2745.0,0.0222
2744.0,0.0207
2743.0,0.0206
2742.0,0.022000000000000002
2741.0,0.019899999999999998
2740.0,0.0213
2739.0,0.0203
2738.0,0.0202
2737.0,0.0201
2736.0,0.0216
2735.0,0.0205
2734.0,0.020900000000000002
2733.0,0.019799999999999998
2732.0,0.0202
2731.0,0.0197
2730.0,0.0211
2729.0,0.0205
2728.0,0.0199
2727.0,0.020300000000000002
2726.0,0.018699999999999998
2725.0,0.0201
2724.0,0.019
2723.0,0.0204
2722.0,0.0188
2721.0,0.0198
2720.0,0.018199999999999997
2719.0,0.018099999999999998
2718.0,0.0185
2717.0,0.0184
2716.0,0.019700000000000002
2715.0,0.017599999999999998
2714.0,0.0185
2713.0,0.0194
2712.0,0.0178
2711.0,0.0182
2710.0,0.019100000000000002
2709.0,0.019
2708.0,0.0179
2707.0,0.0173
2706.0,0.0187
2705.0,0.0172
2704.0,0.0166
2703.0,0.0181
2702.0,0.0165
2701.0,0.0165
2700.0,0.0169
2699.0,0.0168
2698.0,0.0178
2697.0,0.0167
2696.0,0.0171
2695.0,0.0171
2694.0,0.0165
2693.0,0.0165
2692.0,0.0165
2691.0,0.0174
2690.0,0.0169
2689.0,0.0174
2688.0,0.0168
2687.0,0.0173
2686.0,0.0178
2685.0,0.0162
2684.0,0.0172
2683.0,0.0171
2682.0,0.0171
2681.0,0.0166
2680.0,0.0171
2679.0,0.0166
2678.0,0.0175
2677.0,0.016
2676.0,0.0159
2675.0,0.0154
2674.0,0.0164
2673.0,0.0164
2672.0,0.0173
2671.0,0.0173
2670.0,0.0157
2669.0,0.0172
2668.0,0.0172
2667.0,0.0157
2666.0,0.015099999999999999
2665.0,0.0166
2664.0,0.0166
2663.0,0.0155
2662.0,0.017
2661.0,0.017
2660.0,0.0159
2659.0,0.016300000000000002
2658.0,0.015300000000000001
2657.0,0.0158
2656.0,0.0162
2655.0,0.014599999999999998
2654.0,0.0156
2653.0,0.0155
2652.0,0.0149
2651.0,0.0143
2650.0,0.015799999999999998
2649.0,0.0153
2648.0,0.0162
2647.0,0.0147
2646.0,0.015600000000000001
2645.0,0.0155
2644.0,0.0139
2643.0,0.0148
2642.0,0.0143
2641.0,0.0147
2640.0,0.0146
2639.0,0.015000000000000001
2638.0,0.0139
2637.0,0.0133
2636.0,0.0148
2635.0,0.015200000000000002
2634.0,0.0132
2633.0,0.0131
2632.0,0.0135
2631.0,0.0149
2630.0,0.012799999999999999
2629.0,0.014700000000000001
2628.0,0.0136
2627.0,0.014499999999999999
2626.0,0.0129
2625.0,0.0143
2624.0,0.0132
2623.0,0.0121
2622.0,0.012499999999999999
2621.0,0.0135
2620.0,0.0129
2619.0,0.0123
2618.0,0.0127
2617.0,0.0126
2616.0,0.0121
2615.0,0.012
2614.0,0.0124
2613.0,0.011300000000000001
2612.0,0.0132
2611.0,0.011099999999999999
2610.0,0.011
2609.0,0.0119
2608.0,0.0114
2607.0,0.012799999999999999
2606.0,0.0122
2605.0,0.010599999999999998
2604.0,0.010499999999999999
2603.0,0.0114
2602.0,0.0113
2601.0,0.0102
2600.0,0.011600000000000001
2599.0,0.011
2598.0,0.0104
2597.0,0.0098
2596.0,0.0097
2595.0,0.011699999999999999
2594.0,0.009600000000000001
2593.0,0.009500000000000001
2592.0,0.009500000000000001
2591.0,0.01
2590.0,0.009399999999999999
2589.0,0.0114
2588.0,0.0103
2587.0,0.0108
2586.0,0.0103
2585.0,0.0102
2584.0,0.0097
2583.0,0.0101
2582.0,0.0105
2581.0,0.0105
2580.0,0.0105
2579.0,0.0109
2578.0,0.0098
2577.0,0.0098
2576.0,0.008799999999999999
2575.0,0.0102
2574.0,0.0087
2573.0,0.0102
2572.0,0.0102
2571.0,0.0086
2570.0,0.0086
2569.0,0.0096
2568.0,0.010599999999999998
2567.0,0.0101
2566.0,0.01
2565.0,0.01
2564.0,0.0085
2563.0,0.0104
2562.0,0.0099
2561.0,0.0098
2560.0,0.0103
2559.0,0.008799999999999999
2558.0,0.0103
2557.0,0.0097
2556.0,0.0087
2555.0,0.0102
2554.0,0.0097
2553.0,0.0092
2552.0,0.0087
2551.0,0.0087
2550.0,0.009600000000000001
2549.0,0.0091
2548.0,0.0081
2547.0,0.0086
2546.0,0.0081
2545.0,0.009600000000000001
2544.0,0.009999999999999998
2543.0,0.008499999999999999
2542.0,0.009899999999999999
2541.0,0.0079
2540.0,0.009899999999999999
2539.0,0.0089
2538.0,0.0079
2537.0,0.0089
2536.0,0.0079
2535.0,0.0094
2534.0,0.0084
2533.0,0.0079
2532.0,0.0089
2531.0,0.009899999999999999
2530.0,0.009899999999999999
2529.0,0.0094
2528.0,0.0079
2527.0,0.0098
2526.0,0.0088
2525.0,0.0087
2524.0,0.009600000000000001
2523.0,0.0076
2522.0,0.009600000000000001
2521.0,0.0081
2520.0,0.0086
2519.0,0.0076
2518.0,0.007500000000000001
2517.0,0.0089
2516.0,0.0073
2515.0,0.0083
2514.0,0.008700000000000001
2513.0,0.0092
2512.0,0.007599999999999999
2511.0,0.0086
2510.0,0.007599999999999999
2509.0,0.0077
2508.0,0.0077
2507.0,0.0081
2506.0,0.0085
2505.0,0.008900000000000002
2504.0,0.008900000000000002
2503.0,0.008799999999999999
2502.0,0.008400000000000001
2501.0,0.0079
2500.0,0.0079
2499.0,0.008799999999999999
2498.0,0.007299999999999999
2497.0,0.0067
2496.0,0.0072
2495.0,0.0086
2494.0,0.0076
2493.0,0.006999999999999999
2492.0,0.008
2491.0,0.006999999999999999
2490.0,0.0074
2489.0,0.0068000000000000005
2488.0,0.0078
2487.0,0.0073
2486.0,0.0073
2485.0,0.0083
2484.0,0.0068000000000000005
2483.0,0.0068000000000000005
2482.0,0.0063
2481.0,0.0077
2480.0,0.0071
2479.0,0.006500000000000001
2478.0,0.008
2477.0,0.0075
2476.0,0.007
2475.0,0.0059
2474.0,0.0069
2473.0,0.0058
2472.0,0.0077
2471.0,0.006200000000000001
2470.0,0.0071
2469.0,0.0071
2468.0,0.0076
2467.0,0.0071
2466.0,0.0071
2465.0,0.0055
2464.0,0.006999999999999999
2463.0,0.005900000000000001
2462.0,0.0053
2461.0,0.0063
2460.0,0.0052
2459.0,0.006699999999999999
2458.0,0.005600000000000001
2457.0,0.005
2456.0,0.006
2455.0,0.005
2454.0,0.0063999999999999994
2453.0,0.0069
2452.0,0.0063
2451.0,0.0058
2450.0,0.0068
2449.0,0.0068
2448.0,0.006200000000000001
2447.0,0.0067
2446.0,0.0051
2445.0,0.0045
2444.0,0.0065
2443.0,0.0064
2442.0,0.0044
2441.0,0.0044
2440.0,0.0048000000000000004
2439.0,0.004699999999999999
2438.0,0.0062
2437.0,0.005600000000000001
2436.0,0.0061
2435.0,0.004
2434.0,0.004
2433.0,0.0059
2432.0,0.0054
2431.0,0.005299999999999999
2430.0,0.0058
2429.0,0.0058
2428.0,0.0037
2427.0,0.004200000000000001
2426.0,0.0036
2425.0,0.0056
2424.0,0.0056
2423.0,0.0045
2422.0,0.0034999999999999996
2421.0,0.0049
2420.0,0.0054
2419.0,0.0043
2418.0,0.0053
2417.0,0.0052
2416.0,0.0042
2415.0,0.0052
2414.0,0.004699999999999999
2413.0,0.004699999999999999
2412.0,0.0041
2411.0,0.004
2410.0,0.005
2409.0,0.003
2408.0,0.0035
2407.0,0.0035
2406.0,0.0039
2405.0,0.004399999999999999
2404.0,0.0028
2403.0,0.0043
2402.0,0.0048000000000000004
2401.0,0.0048000000000000004
2400.0,0.0043
2399.0,0.0038
2398.0,0.0033
2397.0,0.0037
2396.0,0.0032
2395.0,0.0031
2394.0,0.0046
2393.0,0.0031
2392.0,0.003
2391.0,0.0025
2390.0,0.004
2389.0,0.0029
2388.0,0.0024
2387.0,0.0034
2386.0,0.0038
2385.0,0.0023
2384.0,0.0043
2383.0,0.0023
2382.0,0.004399999999999999
2381.0,0.0029
2380.0,0.0039
2379.0,0.0033
2378.0,0.0027
2377.0,0.0022
2376.0,0.0026
2375.0,0.0036
2374.0,0.0040999999999999995
2373.0,0.0027
2372.0,0.0023
2371.0,0.0038
2370.0,0.0023
2369.0,0.0038
2368.0,0.0033
2367.0,0.004200000000000001
2366.0,0.0032
2365.0,0.0037
2364.0,0.0022
2363.0,0.0031
2362.0,0.0026
2361.0,0.0021
2360.0,0.002
2359.0,0.003
2358.0,0.0029
2357.0,0.0035
2356.0,0.0036
2355.0,0.0037
2354.0,0.0037
2353.0,0.0037
2352.0,0.0031
2351.0,0.0036
2350.0,0.0035
2349.0,0.002
2348.0,0.003
2347.0,0.0025
2346.0,0.002
2345.0,0.0035
2344.0,0.0035
2343.0,0.004
2342.0,0.0018999999999999998
2341.0,0.0034
2340.0,0.0018999999999999998
2339.0,0.0034
2338.0,0.0035
2337.0,0.0035
2336.0,0.0036
2335.0,0.0025
2334.0,0.0035
2333.0,0.0024
2332.0,0.0024
2331.0,0.0018
2330.0,0.0028
2329.0,0.0017000000000000001
2328.0,0.0017000000000000001
2327.0,0.0028
2326.0,0.0028
2325.0,0.0028
2324.0,0.0017000000000000001
2323.0,0.0032
2322.0,0.0033
2321.0,0.0028
2320.0,0.0018
2319.0,0.0032
2318.0,0.0037
2317.0,0.0017000000000000001
2316.0,0.0033
2315.0,0.0038
2314.0,0.0038
2313.0,0.0027
2312.0,0.0031
2311.0,0.0015999999999999999
2310.0,0.0036
2309.0,0.0027
2308.0,0.0032
2307.0,0.0031
2306.0,0.0025
2305.0,0.002
2304.0,0.002
2303.0,0.0015999999999999999
2302.0,0.0031
2301.0,0.0015999999999999999
2300.0,0.0015
2299.0,0.0025
2298.0,0.0018999999999999998
2297.0,0.0024
2296.0,0.0024
2295.0,0.0023
2294.0,0.0028
2293.0,0.0023
2292.0,0.0032
2291.0,0.0017000000000000001
2290.0,0.0017000000000000001
2289.0,0.0017000000000000001
2288.0,0.0021
2287.0,0.0021
2286.0,0.0010999999999999998
2285.0,0.0031
2284.0,0.0021
2283.0,0.0026
2282.0,0.0026
2281.0,0.0010999999999999998
2280.0,0.0025
2279.0,0.002
2278.0,0.0015
2277.0,0.002
2276.0,0.0019
2275.0,0.0024000000000000002
2274.0,0.0014
2273.0,0.0013
2272.0,0.0023
2271.0,0.0007999999999999999
2270.0,0.0018
2269.0,0.0017
2268.0,0.0006999999999999999
2267.0,0.0006999999999999999
2266.0,0.0017
2265.0,0.0006999999999999999
2264.0,0.0017
2263.0,0.0016
2262.0,0.0021000000000000003
2261.0,0.0012
2260.0,0.0021999999999999997
2259.0,0.0006999999999999999
2258.0,0.0021000000000000003
2257.0,0.0021000000000000003
2256.0,0.0011
2255.0,0.0006000000000000001
2254.0,0.0021000000000000003
2253.0,0.0006000000000000001
2252.0,0.0006999999999999999
2251.0,0.0021999999999999997
2250.0,0.0006999999999999999
2249.0,0.0017
2248.0,0.0013
2247.0,0.0028
2246.0,0.0018
2245.0,0.0007999999999999999
2244.0,0.0021999999999999997
2243.0,0.0017
2242.0,0.0017
2241.0,0.0021999999999999997
2240.0,0.0026
2239.0,0.0021000000000000003
2238.0,0.0026
2237.0,0.0012
2236.0,0.0006999999999999999
2235.0,0.0017
2234.0,0.0016
2233.0,0.0026
2232.0,0.0005
2231.0,0.0005
2230.0,0.002
2229.0,0.001
2228.0,0.0015
2227.0,0.0025
2226.0,0.0021000000000000003
2225.0,0.0027
2224.0,0.0021999999999999997
2223.0,0.0017
2222.0,0.0021999999999999997
2221.0,0.0007999999999999999
2220.0,0.0013
2219.0,0.0007999999999999999
2218.0,0.0023
2217.0,0.0017
2216.0,0.0006999999999999999
2215.0,0.0027
2214.0,0.0012
2213.0,0.0018
2212.0,0.0018
2211.0,0.0027
2210.0,0.0016
2209.0,0.0016
2208.0,0.0016
2207.0,0.0011
2206.0,0.0012
2205.0,0.0006999999999999999
2204.0,0.0021000000000000003
2203.0,0.0026
2202.0,0.0025
2201.0,0.002
2200.0,0.0005
2199.0,0.002
2198.0,0.0025
2197.0,0.0026
2196.0,0.0006999999999999999
2195.0,0.0017
2194.0,0.0006000000000000001
2193.0,0.0021000000000000003
2192.0,0.0011
2191.0,0.0011
2190.0,0.0016
2189.0,0.0026
2188.0,0.0016
2187.0,0.0016
2186.0,0.0006000000000000001
2185.0,0.0021999999999999997
2184.0,0.0028
2183.0,0.0024000000000000002
2182.0,0.0014
2181.0,0.0014
2180.0,0.0014
2179.0,0.0023
2178.0,0.0007999999999999999
2177.0,0.0018
2176.0,0.0028
2175.0,0.0014
2174.0,0.0024000000000000002
2173.0,0.0028
2172.0,0.0021999999999999997
2171.0,0.0021999999999999997
2170.0,0.0011
2169.0,0.0006999999999999999
2168.0,0.0006999999999999999
2167.0,0.0013
2166.0,0.0007999999999999999
2165.0,0.0007999999999999999
2164.0,0.0012
2163.0,0.0006999999999999999
2162.0,0.0006000000000000001
2161.0,0.0006000000000000001
2160.0,0.0026
2159.0,0.0026
2158.0,0.001
2157.0,0.0005
2156.0,0.0021999999999999997
2155.0,0.0013
2154.0,0.0013
2153.0,0.0023
2152.0,0.0019
2151.0,0.0029
2150.0,0.0025
2149.0,0.0025
2148.0,0.003
2147.0,0.0025
2146.0,0.0010999999999999998
2145.0,0.0031
2144.0,0.0021
2143.0,0.0015999999999999999
2142.0,0.003
2141.0,0.0019
2140.0,0.0013
2139.0,0.0007999999999999999
2138.0,0.0023
2137.0,0.0023
2136.0,0.0019
2135.0,0.0025
2134.0,0.0026
2133.0,0.0010999999999999998
2132.0,0.0012000000000000001
2131.0,0.0027
2130.0,0.0022
2129.0,0.0017000000000000001
2128.0,0.0026
2127.0,0.0031
2126.0,0.002
2125.0,0.0025
2124.0,0.0025
2123.0,0.002
2122.0,0.0025
2121.0,0.001
2120.0,0.0021
2119.0,0.0010999999999999998
2118.0,0.0010999999999999998
2117.0,0.0032
2116.0,0.0027
2115.0,0.0018
2114.0,0.0033
2113.0,0.0028
2112.0,0.0028
2111.0,0.0032
2110.0,0.0027
2109.0,0.0015999999999999999
2108.0,0.0010999999999999998
2107.0,0.0015999999999999999
2106.0,0.0021
2105.0,0.0015999999999999999
2104.0,0.0031
2103.0,0.0032
2102.0,0.0022
2101.0,0.0018
2100.0,0.0028
2099.0,0.0013
2098.0,0.0022
2097.0,0.0012000000000000001
2096.0,0.0010999999999999998
2095.0,0.0027
2094.0,0.0027
2093.0,0.0027
2092.0,0.0017000000000000001
2091.0,0.0028
2090.0,0.0013
2089.0,0.0018999999999999998
2088.0,0.0015
2087.0,0.002
2086.0,0.0029
2085.0,0.0029
2084.0,0.0018999999999999998
2083.0,0.0029
2082.0,0.0024
2081.0,0.0034
2080.0,0.0013999999999999998
2079.0,0.003
2078.0,0.0015
2077.0,0.003
2076.0,0.0035
2075.0,0.0029
2074.0,0.0018999999999999998
2073.0,0.0013999999999999998
2072.0,0.0029
2071.0,0.0018999999999999998
2070.0,0.0033
2069.0,0.0013
2068.0,0.0028
2067.0,0.0023
2066.0,0.0018999999999999998
2065.0,0.0024
2064.0,0.0029
2063.0,0.0029
2062.0,0.0013
2061.0,0.0023
2060.0,0.0028
2059.0,0.0018
2058.0,0.0017000000000000001
2057.0,0.0017000000000000001
2056.0,0.0015999999999999999
2055.0,0.0031
2054.0,0.0015
2053.0,0.001
2052.0,0.0019
2051.0,0.0024000000000000002
2050.0,0.0014
2049.0,0.0029
2048.0,0.0014
2047.0,0.0019
2046.0,0.0029
2045.0,0.0029
2044.0,0.0019
2043.0,0.0014
2042.0,0.0014
2041.0,0.0029
2040.0,0.0029
2039.0,0.0029
2038.0,0.0028
2037.0,0.0017
2036.0,0.0025
2035.0,0.0014
2034.0,0.0019
2033.0,0.0024000000000000002
2032.0,0.0025
2031.0,0.0006000000000000001
2030.0,0.0016
2029.0,0.0011
2028.0,0.0021000000000000003
2027.0,0.0016
2026.0,0.0016
2025.0,0.0016
2024.0,0.0015
2023.0,0.0005
2022.0,0.0015
2021.0,0.002
2020.0,0.0015
2019.0,0.0025
2018.0,0.001
2017.0,0.0015
2016.0,0.001
2015.0,0.0014
2014.0,0.0018
2013.0,0.0007999999999999999
2012.0,0.0002999999999999999
2011.0,0.0018
2010.0,0.00019999999999999987
2009.0,0.0021000000000000003
2008.0,0.00010000000000000005
2007.0,0.0016
2006.0,0.0021999999999999997
2005.0,0.0014
2004.0,0.0015
2003.0,0.0005
2002.0,0.0015
2001.0,0.002
2000.0,0.0006000000000000001
1999.0,0.0016
1998.0,0.0021999999999999997
1997.0,0.0021000000000000003
1996.0,0.0011
1995.0,0.0005
1994.0,0.0005
1993.0,0.0026
1992.0,0.0006000000000000001
1991.0,0.0006000000000000001
1990.0,0.0026
1989.0,0.0026
1988.0,0.0016
1987.0,0.0027
1986.0,0.0012
1985.0,0.0018
1984.0,0.0007999999999999999
1983.0,0.0013
1982.0,0.0006999999999999999
1981.0,0.0026
1980.0,0.0011
1979.0,0.0011
1978.0,0.0021000000000000003
1977.0,0.0016
1976.0,0.0006000000000000001
1975.0,0.0015
1974.0,0.0006000000000000001
1973.0,0.0017
1972.0,0.0014
1971.0,0.0009
1970.0,0.0024000000000000002
1969.0,0.0014
1968.0,0.003
1967.0,0.0015
1966.0,0.001
1965.0,0.0031
1964.0,0.0031
1963.0,0.0010999999999999998
1962.0,0.0015999999999999999
1961.0,0.0021
1960.0,0.0015999999999999999
1959.0,0.0025
1958.0,0.0019
1957.0,0.0009
1956.0,0.0009
1955.0,0.0019
1954.0,0.0024000000000000002
1953.0,0.0014
1952.0,0.0013
1951.0,0.0023
1950.0,0.0012
1949.0,0.0021999999999999997
1948.0,0.0017
1947.0,0.0028
1946.0,0.0019
1945.0,0.0024000000000000002
1944.0,0.0019
1943.0,0.0028
1942.0,0.0017
1941.0,0.0027
1940.0,0.0028
1939.0,0.0023
1938.0,0.0028
1937.0,0.0012
1936.0,0.0021999999999999997
1935.0,0.0021000000000000003
1934.0,0.0011
1933.0,0.0012
1932.0,0.0006999999999999999
1931.0,0.0006999999999999999
1930.0,0.0017
1929.0,0.0017
1928.0,0.0021999999999999997
1927.0,0.0012
1926.0,0.0007999999999999999
1925.0,0.0023
1924.0,0.0018
1923.0,0.0007999999999999999
1922.0,0.0023
1921.0,0.0019
1920.0,0.0014
1919.0,0.003
1918.0,0.0015
1917.0,0.002
1916.0,0.002
1915.0,0.001
1914.0,0.003
1913.0,0.002
1912.0,0.0015
1911.0,0.001
1910.0,0.001
1909.0,0.0026
1908.0,0.0010999999999999998
1907.0,0.0015999999999999999
1906.0,0.002
1905.0,0.0014
1904.0,0.0024000000000000002
1903.0,0.0014
1902.0,0.0014
1901.0,0.0019
1900.0,0.0025
1899.0,0.0026
1898.0,0.0021
1897.0,0.002
1896.0,0.0019
1895.0,0.0014
1894.0,0.0014
1893.0,0.0029
1892.0,0.0015
1891.0,0.0015
1890.0,0.001
1889.0,0.001
1888.0,0.003
1887.0,0.002
1886.0,0.002
1885.0,0.0019
1884.0,0.0014
1883.0,0.0018
1882.0,0.0023
1881.0,0.0007999999999999999
1880.0,0.0023
1879.0,0.0023
1878.0,0.0007999999999999999
1877.0,0.0024000000000000002
1876.0,0.0009
1875.0,0.0024000000000000002
1874.0,0.0029
1873.0,0.0029
1872.0,0.0024000000000000002
1871.0,0.003
1870.0,0.001
1869.0,0.003
1868.0,0.002
1867.0,0.001
1866.0,0.003
1865.0,0.001
1864.0,0.001
1863.0,0.002
1862.0,0.003
1861.0,0.002
1860.0,0.002
1859.0,0.0031
1858.0,0.0010999999999999998
1857.0,0.0026
1856.0,0.0026
1855.0,0.0021
1854.0,0.0021
1853.0,0.0031
1852.0,0.0021
1851.0,0.0015999999999999999
1850.0,0.0032
1849.0,0.0032
1848.0,0.0012000000000000001
1847.0,0.0012000000000000001
1846.0,0.0018
1845.0,0.0028
1844.0,0.0023
1843.0,0.0022
1842.0,0.0017000000000000001
1841.0,0.0017000000000000001
1840.0,0.0032
1839.0,0.0012000000000000001
1838.0,0.0027
1837.0,0.0028
1836.0,0.0013
1835.0,0.0018
1834.0,0.0023
1833.0,0.0018
1832.0,0.0013
1831.0,0.0013
1830.0,0.0024
1829.0,0.0013999999999999998
1828.0,0.0018999999999999998
1827.0,0.0018999999999999998
1826.0,0.0028
1825.0,0.0013
1824.0,0.0032
1823.0,0.0032
1822.0,0.0018
1821.0,0.0029
1820.0,0.0034
1819.0,0.0029
1818.0,0.0024
1817.0,0.0015
1816.0,0.0035
1815.0,0.002
1814.0,0.0025
1813.0,0.0035
1812.0,0.002
1811.0,0.002
1810.0,0.002
1809.0,0.0034
1808.0,0.0034
1807.0,0.0013999999999999998
1806.0,0.0029
1805.0,0.0015
1804.0,0.003
1803.0,0.0031
1802.0,0.0015999999999999999
1801.0,0.0032
1800.0,0.0023
1799.0,0.0028
1798.0,0.0038
1797.0,0.0023
1796.0,0.0038
1795.0,0.0033
1794.0,0.0033
1793.0,0.0018
1792.0,0.0024
1791.0,0.0034
1790.0,0.0039
1789.0,0.0039
1788.0,0.0039
1787.0,0.0039
1786.0,0.0024
1785.0,0.0024
1784.0,0.0039
1783.0,0.004
1782.0,0.004
1781.0,0.0025
1780.0,0.0026
1779.0,0.0031
1778.0,0.0026
1777.0,0.0027
1776.0,0.0022
1775.0,0.0027
1774.0,0.0022
1773.0,0.0037
1772.0,0.0023
1771.0,0.0043
1770.0,0.0023
1769.0,0.0023
1768.0,0.0038
1767.0,0.0043
1766.0,0.0033
1765.0,0.0023
1764.0,0.0023
1763.0,0.0038
1762.0,0.0033
1761.0,0.0023
1760.0,0.0043
1759.0,0.0038
1758.0,0.0038
1757.0,0.0029
1756.0,0.0029
1755.0,0.0043
1754.0,0.0028
1753.0,0.0043
1752.0,0.0043
1751.0,0.0033
1750.0,0.0043
1749.0,0.004399999999999999
1748.0,0.0039
1747.0,0.0024
1746.0,0.0024
1745.0,0.004399999999999999
1744.0,0.0034
1743.0,0.0039
1742.0,0.0029
1741.0,0.004399999999999999
1740.0,0.003
1739.0,0.0045000000000000005
1738.0,0.0025
1737.0,0.004
1736.0,0.003
1735.0,0.004
1734.0,0.004
1733.0,0.004399999999999999
1732.0,0.0043
1731.0,0.0033
1730.0,0.0034
1729.0,0.0024
1728.0,0.0025
1727.0,0.0046
1726.0,0.0031
1725.0,0.0027
1724.0,0.0033
1723.0,0.004399999999999999
1722.0,0.003
1721.0,0.0046
1720.0,0.0036999999999999997
1719.0,0.0042
1718.0,0.0052
1717.0,0.0048000000000000004
1716.0,0.0044
1715.0,0.0055
1714.0,0.0055
1713.0,0.0040999999999999995
1712.0,0.004200000000000001
1711.0,0.0058
1710.0,0.0058
1709.0,0.0049
1708.0,0.006
1707.0,0.005600000000000001
1706.0,0.004699999999999999
1705.0,0.0052
1704.0,0.0058
1703.0,0.0054
1702.0,0.0044
1701.0,0.004999999999999999
1700.0,0.0045
1699.0,0.0046
1698.0,0.0052
1697.0,0.0048
1696.0,0.0049
1695.0,0.006
1694.0,0.0061
1693.0,0.0051
1692.0,0.0057
1691.0,0.0068000000000000005
1690.0,0.0064
1689.0,0.006
1688.0,0.0056
1687.0,0.0067
1686.0,0.0057
1685.0,0.0058
1684.0,0.0063999999999999994
1683.0,0.0059
1682.0,0.0075
1681.0,0.0081
1680.0,0.0072
1679.0,0.0068000000000000005
1678.0,0.0068000000000000005
1677.0,0.008
1676.0,0.0066
1675.0,0.008799999999999999
1674.0,0.008900000000000002
1673.0,0.007
1672.0,0.009000000000000001
1671.0,0.0070999999999999995
1670.0,0.0093
1669.0,0.009399999999999999
1668.0,0.008
1667.0,0.0086
1666.0,0.0086
1665.0,0.008199999999999999
1664.0,0.0098
1663.0,0.0094
1662.0,0.009899999999999999
1661.0,0.008
1660.0,0.008499999999999999
1659.0,0.009
1658.0,0.009
1657.0,0.0086
1656.0,0.0086
1655.0,0.0102
1654.0,0.0087
1653.0,0.008299999999999998
1652.0,0.008799999999999999
1651.0,0.0103
1650.0,0.0093
1649.0,0.0098
1648.0,0.0103
1647.0,0.008199999999999999
1646.0,0.008199999999999999
1645.0,0.0091
1644.0,0.009600000000000001
1643.0,0.010100000000000001
1642.0,0.0086
1641.0,0.0086
1640.0,0.0086
1639.0,0.0081
1638.0,0.009
1637.0,0.0095
1636.0,0.0095
1635.0,0.008
1634.0,0.0095
1633.0,0.009899999999999999
1632.0,0.0084
1631.0,0.0084
1630.0,0.0088
1629.0,0.0087
1628.0,0.008199999999999999
1627.0,0.0081
1626.0,0.008
1625.0,0.007500000000000001
1624.0,0.0085
1623.0,0.007899999999999999
1622.0,0.0084
1621.0,0.0083
1620.0,0.0093
1619.0,0.0083
1618.0,0.0092
1617.0,0.007
1616.0,0.0079
1615.0,0.0067
1614.0,0.0065
1613.0,0.0074
1612.0,0.008400000000000001
1611.0,0.0063
1610.0,0.0073
1609.0,0.0074
1608.0,0.006999999999999999
1607.0,0.0081
1606.0,0.0087
1605.0,0.0083
1604.0,0.0074
1603.0,0.009000000000000001
1602.0,0.0081
1601.0,0.007200000000000001
1600.0,0.0093
1599.0,0.0084
1598.0,0.008
1597.0,0.0081
1596.0,0.007699999999999999
1595.0,0.0079
1594.0,0.0084
1593.0,0.009
1592.0,0.008499999999999999
1591.0,0.0095
1590.0,0.0095
1589.0,0.009
1588.0,0.0086
1587.0,0.0091
1586.0,0.0087
1585.0,0.008199999999999999
1584.0,0.0102
1583.0,0.008199999999999999
1582.0,0.0102
1581.0,0.0102
1580.0,0.008299999999999998
1579.0,0.0104
1578.0,0.010499999999999999
1577.0,0.0096
1576.0,0.008799999999999999
1575.0,0.009000000000000001
1574.0,0.0101
1573.0,0.0102
1572.0,0.010700000000000001
1571.0,0.0103
1570.0,0.009899999999999999
1569.0,0.009899999999999999
1568.0,0.01
1567.0,0.0106
1566.0,0.0107
1565.0,0.0108
1564.0,0.0114
1563.0,0.0114
1562.0,0.0115
1561.0,0.0115
1560.0,0.0117
1559.0,0.012299999999999998
1558.0,0.0119
1557.0,0.0114
1556.0,0.010599999999999998
1555.0,0.0112
1554.0,0.010700000000000001
1553.0,0.0108
1552.0,0.0125
1551.0,0.011099999999999999
1550.0,0.0132
1549.0,0.0128
1548.0,0.0129
1547.0,0.012
1546.0,0.0121
1545.0,0.0123
1544.0,0.0124
1543.0,0.012499999999999999
1542.0,0.0126
1541.0,0.012299999999999998
1540.0,0.0125
1539.0,0.0137
1538.0,0.012799999999999999
1537.0,0.012899999999999998
1536.0,0.0145
1535.0,0.0131
1534.0,0.0133
1533.0,0.013399999999999999
1532.0,0.0141
1531.0,0.0147
1530.0,0.0143
1529.0,0.0144
1528.0,0.0146
1527.0,0.015799999999999998
1526.0,0.0165
1525.0,0.014599999999999998
1524.0,0.0157
1523.0,0.016300000000000002
1522.0,0.016800000000000002
1521.0,0.0164
1520.0,0.0154
1519.0,0.016800000000000002
1518.0,0.0165
1517.0,0.0151
1516.0,0.0152
1515.0,0.0143
1514.0,0.0135
1513.0,0.012899999999999998
1512.0,0.0141
1511.0,0.014
1510.0,0.013999999999999999
1509.0,0.016300000000000002
1508.0,0.0168
1507.0,0.0176
1506.0,0.0192
1505.0,0.0211
1504.0,0.019799999999999998
1503.0,0.0209
1502.0,0.0219
1501.0,0.0225
1500.0,0.0232
1499.0,0.0244
1498.0,0.0251
1497.0,0.024499999999999997
1496.0,0.026
1495.0,0.0263
1494.0,0.0285
1493.0,0.0298
1492.0,0.0297
1491.0,0.0318
1490.0,0.033
1489.0,0.034300000000000004
1488.0,0.0352
1487.0,0.034999999999999996
1486.0,0.0364
1485.0,0.0399
1484.0,0.0405
1483.0,0.0417
1482.0,0.045
1481.0,0.0465
1480.0,0.0489
1479.0,0.0507
1478.0,0.050499999999999996
1477.0,0.0525
1476.0,0.056
1475.0,0.0564
1474.0,0.0596
1473.0,0.0628
1472.0,0.064
1471.0,0.0683
1470.0,0.0697
1469.0,0.0714
1468.0,0.0716
1467.0,0.0753
1466.0,0.0772
1465.0,0.0792
1464.0,0.0796
1463.0,0.081
1462.0,0.083
1461.0,0.0825
1460.0,0.0838
1459.0,0.084
1458.0,0.0863
1457.0,0.0867
1456.0,0.0872
1455.0,0.0863
1454.0,0.0861
1453.0,0.0864
1452.0,0.0867
1451.0,0.0865
1450.0,0.0867
1449.0,0.0867
1448.0,0.0867
1447.0,0.0867
1446.0,0.0873
1445.0,0.0875
1444.0,0.0868
1443.0,0.0872
1442.0,0.0887
1441.0,0.0872
1440.0,0.0877
1439.0,0.0903
1438.0,0.0911
1437.0,0.0901
1436.0,0.092
1435.0,0.0937
1434.0,0.0943
1433.0,0.0944
1432.0,0.0936
1431.0,0.0954
1430.0,0.0971
1429.0,0.0964
1428.0,0.09860000000000001
1427.0,0.0976
1426.0,0.0997
1425.0,0.0988
1424.0,0.0995
1423.0,0.1004
1422.0,0.1013
1421.0,0.1007
1420.0,0.1026
1419.0,0.1021
1418.0,0.1025
1417.0,0.1038
1416.0,0.1039
1415.0,0.1039
1414.0,0.1029
1413.0,0.103
1412.0,0.1029
1411.0,0.1033
1410.0,0.1037
1409.0,0.102
1408.0,0.1017
1407.0,0.1008
1406.0,0.1024
1405.0,0.10200000000000001
1404.0,0.0999
1403.0,0.0988
1402.0,0.09809999999999999
1401.0,0.0974
1400.0,0.0976
1399.0,0.0957
1398.0,0.0953
1397.0,0.096
1396.0,0.0947
1395.0,0.0945
1394.0,0.0938
1393.0,0.0914
1392.0,0.091
1391.0,0.0912
1390.0,0.0905
1389.0,0.0924
1388.0,0.0924
1387.0,0.091
1386.0,0.0917
1385.0,0.0919
1384.0,0.0922
1383.0,0.0926
1382.0,0.093
1381.0,0.0929
1380.0,0.0927
1379.0,0.0929
1378.0,0.0945
1377.0,0.093
1376.0,0.0938
1375.0,0.0929
1374.0,0.0923
1373.0,0.091
1372.0,0.0922
1371.0,0.0912
1370.0,0.0902
1369.0,0.0891
1368.0,0.0871
1367.0,0.08549999999999999
1366.0,0.0844
1365.0,0.0845
1364.0,0.0828
1363.0,0.08310000000000001
1362.0,0.08310000000000001
1361.0,0.0816
1360.0,0.0817
1359.0,0.0818
1358.0,0.0816
1357.0,0.0804
1356.0,0.0812
1355.0,0.0796
1354.0,0.0795
1353.0,0.0811
1352.0,0.07919999999999999
1351.0,0.0799
1350.0,0.0796
1349.0,0.0804
1348.0,0.0818
1347.0,0.0814
1346.0,0.082
1345.0,0.0828
1344.0,0.0836
1343.0,0.0859
1342.0,0.0856
1341.0,0.0865
1340.0,0.0883
1339.0,0.0886
1338.0,0.08990000000000001
1337.0,0.09
1336.0,0.0891
1335.0,0.0915
1334.0,0.0903
1333.0,0.0911
1332.0,0.0908
1331.0,0.0909
1330.0,0.0905
1329.0,0.0909
1328.0,0.0912
1327.0,0.0914
1326.0,0.0906
1325.0,0.0912
1324.0,0.0888
1323.0,0.0893
1322.0,0.0883
1321.0,0.0878
1320.0,0.0877
1319.0,0.0875
1318.0,0.0853
1317.0,0.0855
1316.0,0.0852
1315.0,0.0839
1314.0,0.0841
1313.0,0.0819
1312.0,0.0807
1311.0,0.0805
1310.0,0.0799
1309.0,0.0804
1308.0,0.0799
1307.0,0.078
1306.0,0.0787
1305.0,0.0775
1304.0,0.0789
1303.0,0.0777
1302.0,0.0787
1301.0,0.0782
1300.0,0.0782
1299.0,0.0787
1298.0,0.0773
1297.0,0.0778
1296.0,0.0779
1295.0,0.0795
1294.0,0.0786
1293.0,0.0792
1292.0,0.0777
1291.0,0.07970000000000001
1290.0,0.0792
1289.0,0.0777
1288.0,0.0786
1287.0,0.0785
1286.0,0.0788
1285.0,0.0771
1284.0,0.0773
1283.0,0.0765
1282.0,0.0781
1281.0,0.0768
1280.0,0.0754
1279.0,0.077
1278.0,0.076
1277.0,0.0751
1276.0,0.0755
1275.0,0.075
1274.0,0.0729
1273.0,0.0733
1272.0,0.0712
1271.0,0.0706
1270.0,0.0709
1269.0,0.0692
1268.0,0.0701
1267.0,0.0679
1266.0,0.0688
1265.0,0.06659999999999999
1264.0,0.0674
1263.0,0.0658
1262.0,0.0656
1261.0,0.064
1260.0,0.0639
1259.0,0.0628
1258.0,0.0628
1257.0,0.0624
1256.0,0.0625
1255.0,0.0617
1254.0,0.0621
1253.0,0.0611
1252.0,0.0621
1251.0,0.0622
1250.0,0.0624
1249.0,0.061700000000000005
1248.0,0.0621
1247.0,0.0646
1246.0,0.06369999999999999
1245.0,0.0644
1244.0,0.0652
1243.0,0.0671
1242.0,0.067
1241.0,0.0684
1240.0,0.0704
1239.0,0.0692
1238.0,0.0705
1237.0,0.0727
1236.0,0.0714
1235.0,0.07390000000000001
1234.0,0.0734
1233.0,0.0737
1232.0,0.0735
1231.0,0.0752
1230.0,0.07339999999999999
1229.0,0.0746
1228.0,0.0742
1227.0,0.0758
1226.0,0.0747
1225.0,0.0757
1224.0,0.0746
1223.0,0.0741
1222.0,0.0735
1221.0,0.0744
1220.0,0.0737
1219.0,0.075
1218.0,0.0733
1217.0,0.0726
1216.0,0.07390000000000001
1215.0,0.0727
1214.0,0.074
1213.0,0.0732
1212.0,0.0715
1211.0,0.0716
1210.0,0.0708
1209.0,0.0704
1208.0,0.0721
1207.0,0.0717
1206.0,0.0692
1205.0,0.0691
1204.0,0.069
1203.0,0.0688
1202.0,0.0665
1201.0,0.0657
1200.0,0.0648
1199.0,0.06369999999999999
1198.0,0.0636
1197.0,0.061399999999999996
1196.0,0.0616
1195.0,0.0587
1194.0,0.0592
1193.0,0.0577
1192.0,0.056
1191.0,0.0543
1190.0,0.0521
1189.0,0.049
1188.0,0.0478
1187.0,0.0463
1186.0,0.0453
1185.0,0.0435
1184.0,0.0419
1183.0,0.041299999999999996
1182.0,0.041800000000000004
1181.0,0.0408
1180.0,0.0394
1179.0,0.039
1178.0,0.0382
1177.0,0.0353
1176.0,0.0366
1175.0,0.0348
1174.0,0.0337
1173.0,0.0331
1172.0,0.0326
1171.0,0.031599999999999996
1170.0,0.0321
1169.0,0.030699999999999998
1168.0,0.0308
1167.0,0.031
1166.0,0.0302
1165.0,0.0305
1164.0,0.0302
1163.0,0.03
1162.0,0.0293
1161.0,0.0286
1160.0,0.0296
1159.0,0.0298
1158.0,0.0297
1157.0,0.0308
1156.0,0.031
1155.0,0.0331
1154.0,0.034
1153.0,0.0347
1152.0,0.038900000000000004
1151.0,0.0409
1150.0,0.0443
1149.0,0.0453
1148.0,0.0485
1147.0,0.0523
1146.0,0.0569
1145.0,0.059
1144.0,0.0608
1143.0,0.0654
1142.0,0.0679
1141.0,0.0697
1140.0,0.0723
1139.0,0.0737
1138.0,0.0752
1137.0,0.077
1136.0,0.0761
1135.0,0.0779
1134.0,0.0791
1133.0,0.0792
1132.0,0.0808
1131.0,0.0805
1130.0,0.082
1129.0,0.082
1128.0,0.0854
1127.0,0.087
1126.0,0.0896
1125.0,0.095
1124.0,0.0998
1123.0,0.1027
1122.0,0.1089
1121.0,0.1144
1120.0,0.1207
1119.0,0.125
1118.0,0.1317
1117.0,0.1377
1116.0,0.1423
1115.0,0.1458
1114.0,0.1506
1113.0,0.1537
1112.0,0.1556
1111.0,0.1567
1110.0,0.158
1109.0,0.1586
1108.0,0.159
1107.0,0.1578
1106.0,0.1551
1105.0,0.1526
1104.0,0.152
1103.0,0.1482
1102.0,0.1454
1101.0,0.1437
1100.0,0.1412
1099.0,0.14100000000000001
1098.0,0.1396
1097.0,0.1381
1096.0,0.1379
1095.0,0.1374
1094.0,0.1363
1093.0,0.136
1092.0,0.1386
1091.0,0.1389
1090.0,0.1385
1089.0,0.1413
1088.0,0.1434
1087.0,0.1451
1086.0,0.1449
1085.0,0.1479
1084.0,0.1494
1083.0,0.1518
1082.0,0.1532
1081.0,0.155
1080.0,0.1583
1079.0,0.1589
1078.0,0.1603
1077.0,0.1611
1076.0,0.162
1075.0,0.1632
1074.0,0.1649
1073.0,0.1672
1072.0,0.1692
1071.0,0.169
1070.0,0.172
1069.0,0.174
1068.0,0.1765
1067.0,0.1814
1066.0,0.184
1065.0,0.1892
1064.0,0.1958
1063.0,0.2024
1062.0,0.2091
1061.0,0.2167
1060.0,0.2245
1059.0,0.233
1058.0,0.2422
1057.0,0.2535
1056.0,0.2641
1055.0,0.2748
1054.0,0.289
1053.0,0.2999
1052.0,0.3155
1051.0,0.3295
1050.0,0.3424
1049.0,0.3588
1048.0,0.3729
1047.0,0.3881
1046.0,0.4015
1045.0,0.4157
1044.0,0.4299
1043.0,0.445
1042.0,0.45589999999999997
1041.0,0.4699
1040.0,0.4818
1039.0,0.493
1038.0,0.502
1037.0,0.5097
1036.0,0.5149
1035.0,0.5194
1034.0,0.5197
1033.0,0.52
1032.0,0.5188999999999999
1031.0,0.5134000000000001
1030.0,0.506
1029.0,0.4982
1028.0,0.488
1027.0,0.4739
1026.0,0.4586
1025.0,0.4415
1024.0,0.4242
1023.0,0.4051
1022.0,0.3863
1021.0,0.3649
1020.0,0.3433
1019.0,0.3221
1018.0,0.3018
1017.0,0.2803
1016.0,0.2615
1015.0,0.2449
1014.0,0.2299
1013.0,0.2148
1012.0,0.2018
1011.0,0.1933
1010.0,0.1837
1009.0,0.1777
1008.0,0.1747
1007.0,0.1724
1006.0,0.1726
1005.0,0.1718
1004.0,0.1751
1003.0,0.1768
1002.0,0.1814
1001.0,0.18359999999999999
1000.0,0.1898
999.0,0.1952
998.0,0.2004
997.0,0.2038
996.0,0.2096
995.0,0.2151
994.0,0.2193
993.0,0.2231
992.0,0.2246
991.0,0.2254
990.0,0.2233
989.0,0.2198
988.0,0.2136
987.0,0.2084
986.0,0.1998
985.0,0.1933
984.0,0.18409999999999999
983.0,0.1785
982.0,0.1702
981.0,0.1654
980.0,0.1605
979.0,0.1568
978.0,0.155
977.0,0.1505
976.0,0.1476
975.0,0.1446
974.0,0.141
973.0,0.138
972.0,0.1333
971.0,0.1271
970.0,0.1214
969.0,0.1168
968.0,0.111
967.0,0.1026
966.0,0.0973
965.0,0.0914
964.0,0.0869
963.0,0.0804
962.0,0.0756
961.0,0.0719
960.0,0.0694
959.0,0.068
958.0,0.0649
957.0,0.0661
956.0,0.064
955.0,0.0646
954.0,0.0657
953.0,0.0679
952.0,0.0696
951.0,0.0735
950.0,0.0764
949.0,0.0786
948.0,0.0788
947.0,0.0802
946.0,0.0821
945.0,0.0823
944.0,0.0836
943.0,0.0851
942.0,0.085
941.0,0.0873
940.0,0.0915
939.0,0.09620000000000001
938.0,0.1008
937.0,0.1073
936.0,0.112
935.0,0.1196
934.0,0.1278
933.0,0.1345
932.0,0.1416
931.0,0.148
930.0,0.1546
929.0,0.1624
928.0,0.1669
927.0,0.1728
926.0,0.1776
925.0,0.1825
924.0,0.1851
923.0,0.1855
922.0,0.1873
921.0,0.1869
920.0,0.1864
919.0,0.1818
918.0,0.1781
917.0,0.1736
916.0,0.1703
915.0,0.1637
914.0,0.1556
913.0,0.1485
912.0,0.1413
911.0,0.1351
910.0,0.1288
909.0,0.1208
908.0,0.1135
907.0,0.1065
906.0,0.1003
905.0,0.0956
904.0,0.0903
903.0,0.0857
902.0,0.081
901.0,0.0772
900.0,0.0728
899.0,0.0691
898.0,0.0649
897.0,0.0629
896.0,0.0599
895.0,0.0566
894.0,0.0547
893.0,0.0535
892.0,0.0533
891.0,0.0513
890.0,0.0516
889.0,0.0505
888.0,0.0507
887.0,0.0502
886.0,0.0514
885.0,0.0499
884.0,0.052700000000000004
883.0,0.0529
882.0,0.0553
881.0,0.0562
880.0,0.0574
879.0,0.0614
878.0,0.06470000000000001
877.0,0.068
876.0,0.06949999999999999
875.0,0.0738
874.0,0.0791
873.0,0.0823
872.0,0.0858
871.0,0.0895
870.0,0.092
869.0,0.0952
868.0,0.0961
867.0,0.09809999999999999
866.0,0.0991
865.0,0.1008
864.0,0.1032
863.0,0.1035
862.0,0.1032
861.0,0.1045
860.0,0.1045
859.0,0.1065
858.0,0.1072
857.0,0.109
856.0,0.1116
855.0,0.1113
854.0,0.1151
853.0,0.1154
852.0,0.1173
851.0,0.1208
850.0,0.1211
849.0,0.1258
848.0,0.1267
847.0,0.132
846.0,0.1347
845.0,0.1399
844.0,0.1438
843.0,0.14679999999999999
842.0,0.153
841.0,0.1555
840.0,0.1566
839.0,0.1569
838.0,0.1555
837.0,0.1524
836.0,0.1449
835.0,0.1384
834.0,0.131
833.0,0.121
832.0,0.1135
831.0,0.107
830.0,0.0996
829.0,0.0949
828.0,0.0914
827.0,0.0903
826.0,0.0892
825.0,0.0879
824.0,0.0871
823.0,0.0862
822.0,0.0863
821.0,0.0879
820.0,0.0886
819.0,0.0867
818.0,0.0871
817.0,0.0874
816.0,0.0866
815.0,0.086
814.0,0.0874
813.0,0.0865
812.0,0.0879
811.0,0.0871
810.0,0.0886
809.0,0.0908
808.0,0.0912
807.0,0.0929
806.0,0.0951
805.0,0.0945
804.0,0.09519999999999999
803.0,0.0949
802.0,0.0956
801.0,0.0961
800.0,0.0946
799.0,0.0929
798.0,0.0937
797.0,0.0916
796.0,0.0931
795.0,0.0909
794.0,0.0914
793.0,0.092
792.0,0.0919
791.0,0.0934
790.0,0.094
789.0,0.0942
788.0,0.0955
787.0,0.09519999999999999
786.0,0.0955
785.0,0.0967
784.0,0.099
783.0,0.0987
782.0,0.0984
781.0,0.0996
780.0,0.1017
779.0,0.1024
778.0,0.103
777.0,0.1032
776.0,0.1024
775.0,0.1033
774.0,0.1046
773.0,0.107
772.0,0.1059
771.0,0.1067
770.0,0.1079
769.0,0.1096
768.0,0.111
767.0,0.1119
766.0,0.1124
765.0,0.1139
764.0,0.1143
763.0,0.1146
762.0,0.1143
761.0,0.1157
760.0,0.1162
759.0,0.1172
758.0,0.1191
757.0,0.1195
756.0,0.1214
755.0,0.1229
754.0,0.1223
753.0,0.1239
752.0,0.1256
751.0,0.1252
750.0,0.1277
749.0,0.1285
748.0,0.12789999999999999
747.0,0.1299
746.0,0.1305
745.0,0.1327
744.0,0.134
743.0,0.1347
742.0,0.1358
741.0,0.1364
740.0,0.1376
739.0,0.1383
738.0,0.1413
737.0,0.1419
736.0,0.142
735.0,0.1427
734.0,0.1452
733.0,0.1453
732.0,0.1474
731.0,0.1479
730.0,0.1495
729.0,0.1492
728.0,0.152
727.0,0.1518
726.0,0.1545
725.0,0.1553
724.0,0.1566
723.0,0.1583
722.0,0.1579
721.0,0.16
720.0,0.1616
719.0,0.1617
718.0,0.1623
717.0,0.1655
716.0,0.1662
715.0,0.168
714.0,0.1672
713.0,0.1694
712.0,0.1707
711.0,0.173
710.0,0.1738
709.0,0.1736
708.0,0.177
707.0,0.1774
706.0,0.1785
705.0,0.1787
704.0,0.181
703.0,0.1833
702.0,0.1841
701.0,0.1855
700.0,0.1869
699.0,0.1872
698.0,0.1895
697.0,0.1899
696.0,0.191
695.0,0.1927
694.0,0.195
693.0,0.1969
692.0,0.1995
691.0,0.2014
690.0,0.2036
689.0,0.2055
688.0,0.2068
687.0,0.2102
686.0,0.2132
685.0,0.2143
684.0,0.2176
683.0,0.2204
682.0,0.2222
681.0,0.2255
680.0,0.2298
679.0,0.2314
678.0,0.23500000000000001
677.0,0.2365
676.0,0.239
675.0,0.242
674.0,0.2431
673.0,0.2435
672.0,0.2453
671.0,0.2467
670.0,0.24760000000000001
669.0,0.2469
668.0,0.2495
667.0,0.2513
666.0,0.252
665.0,0.252
664.0,0.2534
663.0,0.2533
662.0,0.255
661.0,0.2548
660.0,0.2554
659.0,0.256
658.0,0.257
657.0,0.2581
656.0,0.2605
655.0,0.261
654.0,0.2629
653.0,0.2632
652.0,0.2627
651.0,0.2625
650.0,0.264
