Created as New Dataset,Sample 004 By CHEM 370 Date Monday, March 02 2020
cm-1,A
4000.0,0.0013
3999.0,0.0028
3998.0,0.0013
3997.0,0.0022
3996.0,0.0017000000000000001
3995.0,0.0027
3994.0,0.0021
3993.0,0.0010999999999999998
3992.0,0.0026
3991.0,0.0026
3990.0,0.0021
3989.0,0.0022
3988.0,0.0015999999999999999
3987.0,0.0010999999999999998
3986.0,0.0031
3985.0,0.0015999999999999999
3984.0,0.0021
3983.0,0.0026
3982.0,0.0031
3981.0,0.0021
3980.0,0.0010999999999999998
3979.0,0.0021
3978.0,0.0031
3977.0,0.0021
3976.0,0.0026
3975.0,0.001
3974.0,0.003
3973.0,0.0009
3972.0,0.0014
3971.0,0.0009
3970.0,0.0019
3969.0,0.0014
3968.0,0.0024000000000000002
3967.0,0.0024000000000000002
3966.0,0.0029
3965.0,0.0009
3964.0,0.0019
3963.0,0.0024000000000000002
3962.0,0.0019
3961.0,0.0024000000000000002
3960.0,0.0029
3959.0,0.0029
3958.0,0.0013
3957.0,0.0013
3956.0,0.0007999999999999999
3955.0,0.0007999999999999999
3954.0,0.0013
3953.0,0.0028
3952.0,0.0028
3951.0,0.0028
3950.0,0.0023
3949.0,0.0018
3948.0,0.0029
3947.0,0.0014
3946.0,0.0024000000000000002
3945.0,0.0028
3944.0,0.0028
3943.0,0.0013
3942.0,0.0028
3941.0,0.0023
3940.0,0.0028
3939.0,0.0018
3938.0,0.0023
3937.0,0.0007999999999999999
3936.0,0.0007999999999999999
3935.0,0.0018
3934.0,0.0023
3933.0,0.0019
3932.0,0.0019
3931.0,0.0024000000000000002
3930.0,0.0023
3929.0,0.0028
3928.0,0.0007999999999999999
3927.0,0.0018
3926.0,0.0028
3925.0,0.0007999999999999999
3924.0,0.0007999999999999999
3923.0,0.0017
3922.0,0.0012
3921.0,0.0006999999999999999
3920.0,0.0012
3919.0,0.0021000000000000003
3918.0,0.0016
3917.0,0.0016
3916.0,0.0006000000000000001
3915.0,0.0006000000000000001
3914.0,0.0026
3913.0,0.0026
3912.0,0.0016
3911.0,0.0021000000000000003
3910.0,0.0006000000000000001
3909.0,0.0017
3908.0,0.0027
3907.0,0.0027
3906.0,0.0017
3905.0,0.0027
3904.0,0.0017
3903.0,0.0016
3902.0,0.0006000000000000001
3901.0,0.0016
3900.0,0.0016
3899.0,0.0016
3898.0,0.0016
3897.0,0.0021000000000000003
3896.0,0.0011
3895.0,0.0026
3894.0,0.0016
3893.0,0.0021000000000000003
3892.0,0.002
3891.0,0.0015
3890.0,0.0005
3889.0,0.0025
3888.0,0.0025
3887.0,0.002
3886.0,0.002
3885.0,0.001
3884.0,0.0016
3883.0,0.0016
3882.0,0.0026
3881.0,0.0011
3880.0,0.0006000000000000001
3879.0,0.0025
3878.0,0.002
3877.0,0.0005
3876.0,0.0025
3875.0,0.0021000000000000003
3874.0,0.0021000000000000003
3873.0,0.0026
3872.0,0.0016
3871.0,0.001
3870.0,0.002
3869.0,0.001
3868.0,0.0026
3867.0,0.0006000000000000001
3866.0,0.0011
3865.0,0.001
3864.0,0.0015
3863.0,0.0005
3862.0,0.0025
3861.0,0.001
3860.0,0.0025
3859.0,0.002
3858.0,0.0009
3857.0,0.0019
3856.0,0.0024000000000000002
3855.0,0.0005
3854.0,0.0015
3853.0,0.0005
3852.0,0.002
3851.0,0.0025
3850.0,0.0005
3849.0,0.0005
3848.0,0.0025
3847.0,0.002
3846.0,0.002
3845.0,0.002
3844.0,0.001
3843.0,0.002
3842.0,0.002
3841.0,0.0005
3840.0,0.002
3839.0,0.0011
3838.0,0.0006000000000000001
3837.0,0.0006000000000000001
3836.0,0.0016
3835.0,0.0016
3834.0,0.0021000000000000003
3833.0,0.0006000000000000001
3832.0,0.0005
3831.0,0.001
3830.0,0.002
3829.0,0.0019
3828.0,0.00039999999999999996
3827.0,0.0024000000000000002
3826.0,0.0005
3825.0,0.001
3824.0,0.0015
3823.0,0.002
3822.0,0.002
3821.0,0.0025
3820.0,0.001
3819.0,0.0015
3818.0,0.0005
3817.0,0.0024000000000000002
3816.0,0.00039999999999999996
3815.0,0.0009
3814.0,0.0009
3813.0,0.0014
3812.0,0.0009
3811.0,0.0019
3810.0,0.0024000000000000002
3809.0,0.0019
3808.0,0.0014
3807.0,0.00039999999999999996
3806.0,0.0014
3805.0,0.0005
3804.0,0.002
3803.0,0.0005
3802.0,0.0005
3801.0,0.0011
3800.0,0.0021000000000000003
3799.0,0.0021000000000000003
3798.0,0.0006000000000000001
3797.0,0.001
3796.0,0.0005
3795.0,0.0015
3794.0,0.00039999999999999996
3793.0,0.0009
3792.0,0.0009
3791.0,0.0024000000000000002
3790.0,0.001
3789.0,0.002
3788.0,0.0015
3787.0,0.0025
3786.0,0.002
3785.0,0.001
3784.0,0.002
3783.0,0.0005
3782.0,0.001
3781.0,0.0021000000000000003
3780.0,0.0011
3779.0,0.0021000000000000003
3778.0,0.001
3777.0,0.0015
3776.0,0.001
3775.0,0.0015
3774.0,0.0015
3773.0,0.0021000000000000003
3772.0,0.0006000000000000001
3771.0,0.0021000000000000003
3770.0,0.0026
3769.0,0.001
3768.0,0.0015
3767.0,0.0005
3766.0,0.0015
3765.0,0.0005
3764.0,0.001
3763.0,0.0026
3762.0,0.0016
3761.0,0.0006999999999999999
3760.0,0.0021999999999999997
3759.0,0.0021000000000000003
3758.0,0.0011
3757.0,0.0016
3756.0,0.0016
3755.0,0.0016
3754.0,0.0011
3753.0,0.0027
3752.0,0.0017
3751.0,0.0012
3750.0,0.0018
3749.0,0.0028
3748.0,0.0007999999999999999
3747.0,0.0013
3746.0,0.0013
3745.0,0.0023
3744.0,0.0013
3743.0,0.0013
3742.0,0.0006999999999999999
3741.0,0.0021999999999999997
3740.0,0.0028
3739.0,0.0023
3738.0,0.0023
3737.0,0.0007999999999999999
3736.0,0.0023
3735.0,0.0023
3734.0,0.0028
3733.0,0.0007999999999999999
3732.0,0.0013
3731.0,0.0007999999999999999
3730.0,0.0023
3729.0,0.0023
3728.0,0.0007999999999999999
3727.0,0.0023
3726.0,0.0023
3725.0,0.0023
3724.0,0.0029
3723.0,0.0029
3722.0,0.0019
3721.0,0.0009
3720.0,0.0024000000000000002
3719.0,0.002
3718.0,0.0014
3717.0,0.0009
3716.0,0.0024000000000000002
3715.0,0.0009
3714.0,0.0024000000000000002
3713.0,0.0024000000000000002
3712.0,0.0014
3711.0,0.0019
3710.0,0.0009
3709.0,0.0029
3708.0,0.0019
3707.0,0.0009
3706.0,0.0024000000000000002
3705.0,0.003
3704.0,0.001
3703.0,0.0015
3702.0,0.0026
3701.0,0.0026
3700.0,0.0026
3699.0,0.0026
3698.0,0.0015
3697.0,0.001
3696.0,0.0021
3695.0,0.0021
3694.0,0.0021
3693.0,0.0032
3692.0,0.0032
3691.0,0.0018
3690.0,0.0033
3689.0,0.0013
3688.0,0.0018
3687.0,0.0023
3686.0,0.0013999999999999998
3685.0,0.0013999999999999998
3684.0,0.003
3683.0,0.0025
3682.0,0.0025
3681.0,0.002
3680.0,0.0025
3679.0,0.0025
3678.0,0.0026
3677.0,0.0031
3676.0,0.0027
3675.0,0.0023
3674.0,0.0018
3673.0,0.0029
3672.0,0.0034
3671.0,0.003
3670.0,0.0025
3669.0,0.004
3668.0,0.0036
3667.0,0.0021
3666.0,0.0033
3665.0,0.004399999999999999
3664.0,0.004399999999999999
3663.0,0.004
3662.0,0.0045000000000000005
3661.0,0.0035
3660.0,0.003
3659.0,0.0035
3658.0,0.0036
3657.0,0.0043
3656.0,0.0034
3655.0,0.0045000000000000005
3654.0,0.0036000000000000003
3653.0,0.0042
3652.0,0.0033
3651.0,0.0045
3650.0,0.0051
3649.0,0.0036
3648.0,0.0051
3647.0,0.0037
3646.0,0.0037999999999999996
3645.0,0.0039
3644.0,0.0045000000000000005
3643.0,0.0041
3642.0,0.0042
3641.0,0.0048000000000000004
3640.0,0.005900000000000001
3639.0,0.0065
3638.0,0.0066
3637.0,0.0063
3636.0,0.0054
3635.0,0.007
3634.0,0.0051
3633.0,0.0072
3632.0,0.0053
3631.0,0.0054
3630.0,0.0060999999999999995
3629.0,0.0079
3628.0,0.007600000000000001
3627.0,0.0073
3626.0,0.0064
3625.0,0.0066
3624.0,0.0068
3623.0,0.0079
3622.0,0.0081
3621.0,0.007200000000000001
3620.0,0.0084
3619.0,0.0091
3618.0,0.0088
3617.0,0.009999999999999998
3616.0,0.0097
3615.0,0.0095
3614.0,0.0087
3613.0,0.009000000000000001
3612.0,0.0102
3611.0,0.009500000000000001
3610.0,0.010199999999999999
3609.0,0.0115
3608.0,0.012299999999999998
3607.0,0.011
3606.0,0.0112
3605.0,0.012400000000000001
3604.0,0.0126
3603.0,0.0114
3602.0,0.0137
3601.0,0.014100000000000001
3600.0,0.013900000000000001
3599.0,0.0142
3598.0,0.014
3597.0,0.0148
3596.0,0.013600000000000001
3595.0,0.0139
3594.0,0.0163
3593.0,0.015099999999999999
3592.0,0.0149
3591.0,0.0168
3590.0,0.0166
3589.0,0.016
3588.0,0.0165
3587.0,0.0185
3586.0,0.0188
3585.0,0.0177
3584.0,0.019
3583.0,0.0204
3582.0,0.0202
3581.0,0.0196
3580.0,0.02
3579.0,0.0219
3578.0,0.0203
3577.0,0.0208
3576.0,0.0217
3575.0,0.0222
3574.0,0.0231
3573.0,0.0241
3572.0,0.023
3571.0,0.0239
3570.0,0.0258
3569.0,0.0243
3568.0,0.0259
3567.0,0.027
3566.0,0.0275
3565.0,0.0279
3564.0,0.0278
3563.0,0.0278
3562.0,0.0278
3561.0,0.0294
3560.0,0.0309
3559.0,0.0294
3558.0,0.0319
3557.0,0.030399999999999996
3556.0,0.0314
3555.0,0.0319
3554.0,0.034
3553.0,0.0326
3552.0,0.0347
3551.0,0.0353
3550.0,0.0358
3549.0,0.0368
3548.0,0.0369
3547.0,0.036
3546.0,0.0387
3545.0,0.0378
3544.0,0.0395
3543.0,0.0391
3542.0,0.0407
3541.0,0.0398
3540.0,0.0404
3539.0,0.041
3538.0,0.0417
3537.0,0.0434
3536.0,0.0446
3535.0,0.0438
3534.0,0.0455
3533.0,0.0451
3532.0,0.0478
3531.0,0.0484
3530.0,0.047599999999999996
3529.0,0.0484
3528.0,0.0491
3527.0,0.0514
3526.0,0.0506
3525.0,0.0514
3524.0,0.052199999999999996
3523.0,0.054
3522.0,0.0547
3521.0,0.0549
3520.0,0.0547
3519.0,0.0564
3518.0,0.0581
3517.0,0.0584
3516.0,0.0582
3515.0,0.059
3514.0,0.0603
3513.0,0.0621
3512.0,0.060899999999999996
3511.0,0.0632
3510.0,0.0635
3509.0,0.0648
3508.0,0.0662
3507.0,0.067
3506.0,0.0673
3505.0,0.06659999999999999
3504.0,0.0685
3503.0,0.0688
3502.0,0.0692
3501.0,0.071
3500.0,0.0719
3499.0,0.0733
3498.0,0.0742
3497.0,0.0736
3496.0,0.075
3495.0,0.0774
3494.0,0.0768
3493.0,0.0771
3492.0,0.078
3491.0,0.0799
3490.0,0.0798
3489.0,0.0807
3488.0,0.0835
3487.0,0.0824
3486.0,0.0849
3485.0,0.0848
3484.0,0.0868
3483.0,0.0862
3482.0,0.0892
3481.0,0.0901
3480.0,0.0901
3479.0,0.0915
3478.0,0.0919
3477.0,0.0929
3476.0,0.0933
3475.0,0.09570000000000001
3474.0,0.0957
3473.0,0.0967
3472.0,0.0967
3471.0,0.0977
3470.0,0.1001
3469.0,0.1001
3468.0,0.1021
3467.0,0.1016
3466.0,0.103
3465.0,0.1055
3464.0,0.1054
3463.0,0.1059
3462.0,0.1069
3461.0,0.109
3460.0,0.1105
3459.0,0.11
3458.0,0.1115
3457.0,0.1124
3456.0,0.1128
3455.0,0.1143
3454.0,0.1158
3453.0,0.1163
3452.0,0.1177
3451.0,0.1172
3450.0,0.1203
3449.0,0.1203
3448.0,0.122
3447.0,0.1216
3446.0,0.1236
3445.0,0.1256
3444.0,0.1266
3443.0,0.1271
3442.0,0.1277
3441.0,0.1288
3440.0,0.1308
3439.0,0.1318
3438.0,0.1318
3437.0,0.1324
3436.0,0.1339
3435.0,0.1345
3434.0,0.136
3433.0,0.1366
3432.0,0.1376
3431.0,0.1402
3430.0,0.1402
3429.0,0.1407
3428.0,0.1433
3427.0,0.1433
3426.0,0.1433
3425.0,0.1457
3424.0,0.1472
3423.0,0.1477
3422.0,0.1473
3421.0,0.1503
3420.0,0.1499
3419.0,0.1504
3418.0,0.1534
3417.0,0.1539
3416.0,0.1545
3415.0,0.1545
3414.0,0.1555
3413.0,0.1585
3412.0,0.1595
3411.0,0.1594
3410.0,0.1604
3409.0,0.1609
3408.0,0.1634
3407.0,0.1639
3406.0,0.1639
3405.0,0.1654
3404.0,0.1655
3403.0,0.1669
3402.0,0.1674
3401.0,0.1698
3400.0,0.1712
3399.0,0.1707
3398.0,0.1731
3397.0,0.1726
3396.0,0.1751
3395.0,0.175
3394.0,0.176
3393.0,0.1775
3392.0,0.1775
3391.0,0.1789
3390.0,0.1792
3389.0,0.1811
3388.0,0.1815
3387.0,0.1833
3386.0,0.1842
3385.0,0.1841
3384.0,0.1845
3383.0,0.1854
3382.0,0.1862
3381.0,0.1876
3380.0,0.1894
3379.0,0.1888
3378.0,0.1912
3377.0,0.1916
3376.0,0.193
3375.0,0.1919
3374.0,0.1932
3373.0,0.1951
3372.0,0.1959
3371.0,0.1958
3370.0,0.1976
3369.0,0.1984
3368.0,0.1987
3367.0,0.1989
3366.0,0.2011
3365.0,0.2008
3364.0,0.2015
3363.0,0.2023
3362.0,0.203
3361.0,0.2037
3360.0,0.2054
3359.0,0.204
3358.0,0.2047
3357.0,0.2054
3356.0,0.2076
3355.0,0.2078
3354.0,0.2075
3353.0,0.2092
3352.0,0.2103
3351.0,0.2104
3350.0,0.2115
3349.0,0.2116
3348.0,0.2116
3347.0,0.2132
3346.0,0.2123
3345.0,0.2138
3344.0,0.2139
3343.0,0.215
3342.0,0.2165
3341.0,0.21509999999999999
3340.0,0.2171
3339.0,0.2175
3338.0,0.2185
3337.0,0.218
3336.0,0.219
3335.0,0.218
3334.0,0.2189
3333.0,0.2193
3332.0,0.2207
3331.0,0.2195
3330.0,0.2214
3329.0,0.2214
3328.0,0.2218
3327.0,0.2232
3326.0,0.2216
3325.0,0.2234
3324.0,0.2242
3323.0,0.223
3322.0,0.2248
3321.0,0.2251
3320.0,0.2254
3319.0,0.2237
3318.0,0.2254
3317.0,0.2261
3316.0,0.2249
3315.0,0.2246
3314.0,0.2269
3313.0,0.2266
3312.0,0.2254
3311.0,0.2276
3310.0,0.2278
3309.0,0.227
3308.0,0.22820000000000001
3307.0,0.2278
3306.0,0.2264
3305.0,0.2265
3304.0,0.2275
3303.0,0.227
3302.0,0.227
3301.0,0.2265
3300.0,0.2285
3299.0,0.2265
3298.0,0.2281
3297.0,0.2281
3296.0,0.2281
3295.0,0.2271
3294.0,0.2286
3293.0,0.2265
3292.0,0.2284
3291.0,0.2263
3290.0,0.2261
3289.0,0.2265
3288.0,0.2259
3287.0,0.2278
3286.0,0.2272
3285.0,0.2261
3284.0,0.2264
3283.0,0.2262
3282.0,0.2254
3281.0,0.2267
3280.0,0.2245
3279.0,0.2248
3278.0,0.2261
3277.0,0.2244
3276.0,0.2243
3275.0,0.2251
3274.0,0.2248
3273.0,0.223
3272.0,0.2237
3271.0,0.2229
3270.0,0.223
3269.0,0.2221
3268.0,0.2222
3267.0,0.2227
3266.0,0.2218
3265.0,0.22190000000000001
3264.0,0.221
3263.0,0.2206
3262.0,0.2197
3261.0,0.2203
3260.0,0.2178
3259.0,0.2184
3258.0,0.2174
3257.0,0.2174
3256.0,0.2169
3255.0,0.2159
3254.0,0.2153
3253.0,0.2162
3252.0,0.2137
3251.0,0.2136
3250.0,0.2125
3249.0,0.2119
3248.0,0.2133
3247.0,0.2122
3246.0,0.2115
3245.0,0.2114
3244.0,0.2092
3243.0,0.2096
3242.0,0.2089
3241.0,0.2072
3240.0,0.208
3239.0,0.2053
3238.0,0.2055
3237.0,0.2048
3236.0,0.2041
3235.0,0.2023
3234.0,0.2026
3233.0,0.2008
3232.0,0.202
3231.0,0.1996
3230.0,0.1988
3229.0,0.1984
3228.0,0.1966
3227.0,0.1967
3226.0,0.1968
3225.0,0.1945
3224.0,0.1931
3223.0,0.1927
3222.0,0.1918
3221.0,0.1909
3220.0,0.1916
3219.0,0.1892
3218.0,0.1878
3217.0,0.1868
3216.0,0.1873
3215.0,0.1853
3214.0,0.1838
3213.0,0.1848
3212.0,0.1839
3211.0,0.1824
3210.0,0.1809
3209.0,0.1804
3208.0,0.1798
3207.0,0.17830000000000001
3206.0,0.1768
3205.0,0.1768
3204.0,0.1757
3203.0,0.1732
3202.0,0.1717
3201.0,0.1706
3200.0,0.1711
3199.0,0.169
3198.0,0.1679
3197.0,0.1682
3196.0,0.1656
3195.0,0.1645
3194.0,0.1634
3193.0,0.1629
3192.0,0.1613
3191.0,0.1607
3190.0,0.1587
3189.0,0.1596
3188.0,0.1574
3187.0,0.1573
3186.0,0.1542
3185.0,0.1536
3184.0,0.1525
3183.0,0.1514
3182.0,0.1498
3181.0,0.1506
3180.0,0.149
3179.0,0.1473
3178.0,0.1467
3177.0,0.1441
3176.0,0.145
3175.0,0.1423
3174.0,0.1427
3173.0,0.1395
3172.0,0.1404
3171.0,0.1378
3170.0,0.1367
3169.0,0.1365
3168.0,0.1339
3167.0,0.1333
3166.0,0.1332
3165.0,0.1315
3164.0,0.1314
3163.0,0.1293
3162.0,0.1273
3161.0,0.1282
3160.0,0.1271
3159.0,0.1256
3158.0,0.1235
3157.0,0.1234
3156.0,0.1223
3155.0,0.1207
3154.0,0.1202
3153.0,0.1186
3152.0,0.11699999999999999
3151.0,0.1159
3150.0,0.1153
3149.0,0.1142
3148.0,0.1127
3147.0,0.1112
3146.0,0.1112
3145.0,0.1092
3144.0,0.1097
3143.0,0.1087
3142.0,0.1076
3141.0,0.1066
3140.0,0.1041
3139.0,0.1046
3138.0,0.103
3137.0,0.10099999999999999
3136.0,0.1005
3135.0,0.0991
3134.0,0.0982
3133.0,0.0988
3132.0,0.0963
3131.0,0.0969
3130.0,0.095
3129.0,0.0945
3128.0,0.0946
3127.0,0.0937
3126.0,0.09230000000000001
3125.0,0.0919
3124.0,0.09
3123.0,0.0895
3122.0,0.0891
3121.0,0.0877
3120.0,0.0864
3119.0,0.0845
3118.0,0.0837
3117.0,0.0838
3116.0,0.0825
3115.0,0.0817
3114.0,0.0804
3113.0,0.0796
3112.0,0.0803
3111.0,0.0785
3110.0,0.0792
3109.0,0.0779
3108.0,0.0767
3107.0,0.0754
3106.0,0.0746
3105.0,0.0744
3104.0,0.0741
3103.0,0.0728
3102.0,0.0716
3101.0,0.0724
3100.0,0.0697
3099.0,0.0695
3098.0,0.0698
3097.0,0.0681
3096.0,0.0689
3095.0,0.0667
3094.0,0.067
3093.0,0.0654
3092.0,0.0647
3091.0,0.0636
3090.0,0.063
3089.0,0.0624
3088.0,0.0638
3087.0,0.06319999999999999
3086.0,0.0611
3085.0,0.062
3084.0,0.0604
3083.0,0.0588
3082.0,0.0588
3081.0,0.0577
3080.0,0.0592
3079.0,0.0581
3078.0,0.057
3077.0,0.0564
3076.0,0.0548
3075.0,0.0558
3074.0,0.0553
3073.0,0.0553
3072.0,0.0543
3071.0,0.0523
3070.0,0.0527
3069.0,0.052700000000000004
3068.0,0.0508
3067.0,0.0523
3066.0,0.0503
3065.0,0.0503
3064.0,0.0509
3063.0,0.0484
3062.0,0.049
3061.0,0.048
3060.0,0.0486
3059.0,0.0487
3058.0,0.0478
3057.0,0.0458
3056.0,0.0464
3055.0,0.045
3054.0,0.0461
3053.0,0.0457
3052.0,0.0438
3051.0,0.0444
3050.0,0.0441
3049.0,0.0433
3048.0,0.0434
3047.0,0.044
3046.0,0.0431
3045.0,0.0418
3044.0,0.0414
3043.0,0.0421
3042.0,0.0422
3041.0,0.0404
3040.0,0.0411
3039.0,0.0403
3038.0,0.039
3037.0,0.0387
3036.0,0.0399
3035.0,0.04
3034.0,0.0398
3033.0,0.0395
3032.0,0.0382
3031.0,0.0375
3030.0,0.0387
3029.0,0.038
3028.0,0.036699999999999997
3027.0,0.0365
3026.0,0.0363
3025.0,0.0375
3024.0,0.0368
3023.0,0.0361
3022.0,0.0369
3021.0,0.0352
3020.0,0.0356
3019.0,0.0354
3018.0,0.0362
3017.0,0.035
3016.0,0.0353
3015.0,0.0342
3014.0,0.0346
3013.0,0.0345
3012.0,0.0354
3011.0,0.0344
3010.0,0.0338
3009.0,0.0348
3008.0,0.0342
3007.0,0.0332
3006.0,0.0342
3005.0,0.033299999999999996
3004.0,0.0349
3003.0,0.0351
3002.0,0.0348
3001.0,0.0345
3000.0,0.0348
2999.0,0.0356
2998.0,0.034999999999999996
2997.0,0.0359
2996.0,0.0369
2995.0,0.0366
2994.0,0.0382
2993.0,0.038
2992.0,0.0393
2991.0,0.0417
2990.0,0.0417
2989.0,0.0437
2988.0,0.0448
2987.0,0.044
2986.0,0.0458
2985.0,0.0476
2984.0,0.0495
2983.0,0.0514
2982.0,0.0519
2981.0,0.0524
2980.0,0.055
2979.0,0.0575
2978.0,0.057
2977.0,0.0594
2976.0,0.0604
2975.0,0.0633
2974.0,0.0636
2973.0,0.0648
2972.0,0.0664
2971.0,0.0679
2970.0,0.0673
2969.0,0.0682
2968.0,0.0689
2967.0,0.07050000000000001
2966.0,0.0711
2965.0,0.0722
2964.0,0.0713
2963.0,0.073
2962.0,0.0736
2961.0,0.07339999999999999
2960.0,0.0737
2959.0,0.0747
2958.0,0.0762
2957.0,0.0787
2956.0,0.0788
2955.0,0.0805
2954.0,0.0822
2953.0,0.0819
2952.0,0.0837
2951.0,0.0844
2950.0,0.0852
2949.0,0.0864
2948.0,0.0877
2947.0,0.089
2946.0,0.0912
2945.0,0.0914
2944.0,0.0931
2943.0,0.09570000000000001
2942.0,0.09469999999999999
2941.0,0.0977
2940.0,0.0965
2939.0,0.0988
2938.0,0.099
2937.0,0.1006
2936.0,0.1002
2935.0,0.1016
2934.0,0.1008
2933.0,0.1009
2932.0,0.0998
2931.0,0.0997
2930.0,0.0993
2929.0,0.0989
2928.0,0.0994
2927.0,0.0978
2926.0,0.09860000000000001
2925.0,0.0974
2924.0,0.0971
2923.0,0.0963
2922.0,0.0954
2921.0,0.0939
2920.0,0.0939
2919.0,0.0915
2918.0,0.092
2917.0,0.0906
2916.0,0.0892
2915.0,0.08940000000000001
2914.0,0.0886
2913.0,0.0864
2912.0,0.0868
2911.0,0.0858
2910.0,0.0864
2909.0,0.0855
2908.0,0.0842
2907.0,0.0834
2906.0,0.0834
2905.0,0.0844
2904.0,0.0835
2903.0,0.0847
2902.0,0.084
2901.0,0.0844
2900.0,0.0849
2899.0,0.0854
2898.0,0.0865
2897.0,0.0877
2896.0,0.0885
2895.0,0.0899
2894.0,0.0893
2893.0,0.0907
2892.0,0.0932
2891.0,0.0927
2890.0,0.0941
2889.0,0.0941
2888.0,0.097
2887.0,0.0964
2886.0,0.0973
2885.0,0.0995
2884.0,0.1002
2883.0,0.1002
2882.0,0.1011
2881.0,0.0994
2880.0,0.101
2879.0,0.101
2878.0,0.0998
2877.0,0.0989
2876.0,0.0993
2875.0,0.0996
2874.0,0.0977
2873.0,0.0962
2872.0,0.095
2871.0,0.0932
2870.0,0.0919
2869.0,0.0925
2868.0,0.089
2867.0,0.088
2866.0,0.0865
2865.0,0.0859
2864.0,0.0829
2863.0,0.0834
2862.0,0.081
2861.0,0.079
2860.0,0.0782
2859.0,0.0778
2858.0,0.075
2857.0,0.0733
2856.0,0.0736
2855.0,0.0715
2854.0,0.0714
2853.0,0.0708
2852.0,0.0688
2851.0,0.0683
2850.0,0.0664
2849.0,0.0654
2848.0,0.0641
2847.0,0.0652
2846.0,0.0634
2845.0,0.0631
2844.0,0.0618
2843.0,0.0605
2842.0,0.0607
2841.0,0.06
2840.0,0.0593
2839.0,0.0576
2838.0,0.0564
2837.0,0.0563
2836.0,0.0561
2835.0,0.056
2834.0,0.0559
2833.0,0.0538
2832.0,0.0547
2831.0,0.0536
2830.0,0.0515
2829.0,0.0524
2828.0,0.0513
2827.0,0.0517
2826.0,0.0492
2825.0,0.0501
2824.0,0.0501
2823.0,0.049
2822.0,0.0475
2821.0,0.0485
2820.0,0.046
2819.0,0.045899999999999996
2818.0,0.0454
2817.0,0.0449
2816.0,0.0444
2815.0,0.0439
2814.0,0.0449
2813.0,0.0424
2812.0,0.042499999999999996
2811.0,0.042
2810.0,0.0411
2809.0,0.0426
2808.0,0.0422
2807.0,0.0403
2806.0,0.0409
2805.0,0.0399
2804.0,0.0385
2803.0,0.0402
2802.0,0.0383
2801.0,0.037899999999999996
2800.0,0.0375
2799.0,0.0381
2798.0,0.0383
2797.0,0.0359
2796.0,0.0356
2795.0,0.0358
2794.0,0.037
2793.0,0.0357
2792.0,0.0344
2791.0,0.0361
2790.0,0.0353
2789.0,0.0335
2788.0,0.0332
2787.0,0.0339
2786.0,0.0327
2785.0,0.0339
2784.0,0.0327
2783.0,0.0324
2782.0,0.0337
2781.0,0.0325
2780.0,0.0328
2779.0,0.0321
2778.0,0.0313
2777.0,0.0316
2776.0,0.030899999999999997
2775.0,0.0303
2774.0,0.031599999999999996
2773.0,0.0304
2772.0,0.0307
2771.0,0.031599999999999996
2770.0,0.0304
2769.0,0.0297
2768.0,0.0311
2767.0,0.0305
2766.0,0.0303
2765.0,0.0287
2764.0,0.030100000000000002
2763.0,0.0305
2762.0,0.0303
2761.0,0.0287
2760.0,0.030000000000000002
2759.0,0.0294
2758.0,0.0283
2757.0,0.0277
2756.0,0.0276
2755.0,0.029
2754.0,0.0278
2753.0,0.0292
2752.0,0.0271
2751.0,0.0285
2750.0,0.028900000000000002
2749.0,0.0288
2748.0,0.0272
2747.0,0.0286
2746.0,0.0271
2745.0,0.0275
2744.0,0.0264
2743.0,0.028300000000000002
2742.0,0.0277
2741.0,0.0276
2740.0,0.027
2739.0,0.0274
2738.0,0.0273
2737.0,0.0262
2736.0,0.0271
2735.0,0.027
2734.0,0.0275
2733.0,0.0274
2732.0,0.0263
2731.0,0.027100000000000003
2730.0,0.0255
2729.0,0.0269
2728.0,0.0253
2727.0,0.0257
2726.0,0.0261
2725.0,0.024999999999999998
2724.0,0.0264
2723.0,0.0253
2722.0,0.0256
2721.0,0.026000000000000002
2720.0,0.0249
2719.0,0.0248
2718.0,0.0252
2717.0,0.0236
2716.0,0.025400000000000002
2715.0,0.023299999999999998
2714.0,0.0241
2713.0,0.0235
2712.0,0.024900000000000002
2711.0,0.0233
2710.0,0.0241
2709.0,0.0245
2708.0,0.0234
2707.0,0.0238
2706.0,0.022699999999999998
2705.0,0.022099999999999998
2704.0,0.023
2703.0,0.0234
2702.0,0.0224
2701.0,0.0238
2700.0,0.0217
2699.0,0.021599999999999998
2698.0,0.0235
2697.0,0.0215
2696.0,0.0229
2695.0,0.0223
2694.0,0.0217
2693.0,0.0211
2692.0,0.022600000000000002
2691.0,0.0215
2690.0,0.023
2689.0,0.0209
2688.0,0.0224
2687.0,0.0214
2686.0,0.0218
2685.0,0.0212
2684.0,0.0207
2683.0,0.0212
2682.0,0.0221
2681.0,0.0211
2680.0,0.0211
2679.0,0.0215
2678.0,0.0214
2677.0,0.0219
2676.0,0.0213
2675.0,0.0208
2674.0,0.0222
2673.0,0.0222
2672.0,0.0222
2671.0,0.0216
2670.0,0.0206
2669.0,0.02
2668.0,0.0205
2667.0,0.0214
2666.0,0.0208
2665.0,0.0213
2664.0,0.0207
2663.0,0.0207
2662.0,0.0197
2661.0,0.0211
2660.0,0.0196
2659.0,0.02
2658.0,0.0194
2657.0,0.0203
2656.0,0.0213
2655.0,0.0207
2654.0,0.0202
2653.0,0.0211
2652.0,0.0211
2651.0,0.0205
2650.0,0.0189
2649.0,0.0198
2648.0,0.0193
2647.0,0.0192
2646.0,0.0197
2645.0,0.0206
2644.0,0.0195
2643.0,0.0184
2642.0,0.020300000000000002
2641.0,0.0188
2640.0,0.0192
2639.0,0.0196
2638.0,0.02
2637.0,0.0188
2636.0,0.0182
2635.0,0.0182
2634.0,0.0191
2633.0,0.0186
2632.0,0.0195
2631.0,0.0179
2630.0,0.0177
2629.0,0.019100000000000002
2628.0,0.0185
2627.0,0.0169
2626.0,0.0184
2625.0,0.0188
2624.0,0.018600000000000002
2623.0,0.0175
2622.0,0.016399999999999998
2621.0,0.0178
2620.0,0.0182
2619.0,0.0167
2618.0,0.0171
2617.0,0.0165
2616.0,0.015899999999999997
2615.0,0.015799999999999998
2614.0,0.0157
2613.0,0.0161
2612.0,0.017400000000000002
2611.0,0.0163
2610.0,0.0157
2609.0,0.0171
2608.0,0.0155
2607.0,0.0149
2606.0,0.015300000000000001
2605.0,0.0158
2604.0,0.015199999999999998
2603.0,0.0161
2602.0,0.015
2601.0,0.0164
2600.0,0.014799999999999999
2599.0,0.0142
2598.0,0.0157
2597.0,0.015600000000000001
2596.0,0.015600000000000001
2595.0,0.014499999999999999
2594.0,0.015300000000000001
2593.0,0.0152
2592.0,0.0151
2591.0,0.0155
2590.0,0.013500000000000002
2589.0,0.0144
2588.0,0.013399999999999999
2587.0,0.0138
2586.0,0.0138
2585.0,0.0143
2584.0,0.014700000000000001
2583.0,0.014700000000000001
2582.0,0.0141
2581.0,0.014
2580.0,0.014
2579.0,0.0139
2578.0,0.0139
2577.0,0.012799999999999999
2576.0,0.0148
2575.0,0.0142
2574.0,0.0137
2573.0,0.0126
2572.0,0.013099999999999999
2571.0,0.0136
2570.0,0.014
2569.0,0.0125
2568.0,0.0135
2567.0,0.012400000000000001
2566.0,0.012799999999999999
2565.0,0.0138
2564.0,0.0132
2563.0,0.0137
2562.0,0.0137
2561.0,0.013600000000000001
2560.0,0.0131
2559.0,0.012199999999999999
2558.0,0.012199999999999999
2557.0,0.012199999999999999
2556.0,0.0127
2555.0,0.0142
2554.0,0.014100000000000001
2553.0,0.0131
2552.0,0.013999999999999999
2551.0,0.0135
2550.0,0.0129
2549.0,0.0134
2548.0,0.0134
2547.0,0.0124
2546.0,0.0119
2545.0,0.0138
2544.0,0.0128
2543.0,0.0138
2542.0,0.0123
2541.0,0.0123
2540.0,0.011800000000000001
2539.0,0.0139
2538.0,0.0134
2537.0,0.0129
2536.0,0.0128
2535.0,0.0132
2534.0,0.0131
2533.0,0.0121
2532.0,0.0131
2531.0,0.013600000000000001
2530.0,0.0116
2529.0,0.013000000000000001
2528.0,0.013000000000000001
2527.0,0.0125
2526.0,0.013000000000000001
2525.0,0.011899999999999999
2524.0,0.0124
2523.0,0.0129
2522.0,0.011300000000000001
2521.0,0.0123
2520.0,0.0132
2519.0,0.011200000000000002
2518.0,0.0117
2517.0,0.011200000000000002
2516.0,0.0132
2515.0,0.0117
2514.0,0.012700000000000001
2513.0,0.0126
2512.0,0.0116
2511.0,0.0131
2510.0,0.012
2509.0,0.0115
2508.0,0.0119
2507.0,0.0114
2506.0,0.0123
2505.0,0.0123
2504.0,0.0113
2503.0,0.0108
2502.0,0.0117
2501.0,0.0117
2500.0,0.0126
2499.0,0.0125
2498.0,0.012400000000000001
2497.0,0.012400000000000001
2496.0,0.012400000000000001
2495.0,0.0113
2494.0,0.012299999999999998
2493.0,0.0117
2492.0,0.0117
2491.0,0.0117
2490.0,0.0102
2489.0,0.0106
2488.0,0.011600000000000001
2487.0,0.0115
2486.0,0.011
2485.0,0.009899999999999999
2484.0,0.0103
2483.0,0.0108
2482.0,0.0097
2481.0,0.0107
2480.0,0.009600000000000001
2479.0,0.0111
2478.0,0.0101
2477.0,0.0115
2476.0,0.0115
2475.0,0.0105
2474.0,0.009899999999999999
2473.0,0.0114
2472.0,0.0108
2471.0,0.0102
2470.0,0.0092
2469.0,0.0096
2468.0,0.011
2467.0,0.0095
2466.0,0.010400000000000001
2465.0,0.0109
2464.0,0.010400000000000001
2463.0,0.0094
2462.0,0.0093
2461.0,0.0102
2460.0,0.010599999999999998
2459.0,0.010599999999999998
2458.0,0.009099999999999999
2457.0,0.0085
2456.0,0.009
2455.0,0.0099
2454.0,0.0098
2453.0,0.0103
2452.0,0.0102
2451.0,0.010100000000000001
2450.0,0.009999999999999998
2449.0,0.009999999999999998
2448.0,0.008
2447.0,0.009999999999999998
2446.0,0.008499999999999999
2445.0,0.0089
2444.0,0.0083
2443.0,0.0087
2442.0,0.0092
2441.0,0.0097
2440.0,0.0092
2439.0,0.009600000000000001
2438.0,0.007500000000000001
2437.0,0.009500000000000001
2436.0,0.009399999999999999
2435.0,0.0073
2434.0,0.007200000000000001
2433.0,0.0092
2432.0,0.0070999999999999995
2431.0,0.007599999999999999
2430.0,0.0091
2429.0,0.0081
2428.0,0.0070999999999999995
2427.0,0.009000000000000001
2426.0,0.008400000000000001
2425.0,0.008900000000000002
2424.0,0.0079
2423.0,0.0083
2422.0,0.008799999999999999
2421.0,0.0087
2420.0,0.0066
2419.0,0.0076
2418.0,0.0065
2417.0,0.0085
2416.0,0.0064
2415.0,0.0069
2414.0,0.0063
2413.0,0.0063
2412.0,0.0077
2411.0,0.0062
2410.0,0.006699999999999999
2409.0,0.0062
2408.0,0.0077
2407.0,0.0066
2406.0,0.0066
2405.0,0.0061
2404.0,0.008
2403.0,0.006500000000000001
2402.0,0.006
2401.0,0.0069
2400.0,0.0074
2399.0,0.0079
2398.0,0.0063999999999999994
2397.0,0.007299999999999999
2396.0,0.0058
2395.0,0.0058
2394.0,0.0072
2393.0,0.0057
2392.0,0.0077
2391.0,0.0057
2390.0,0.0067
2389.0,0.0067
2388.0,0.0067
2387.0,0.0060999999999999995
2386.0,0.0056
2385.0,0.006
2384.0,0.005900000000000001
2383.0,0.0058
2382.0,0.0063
2381.0,0.0058
2380.0,0.0058
2379.0,0.0058
2378.0,0.0053
2377.0,0.0062
2376.0,0.0057
2375.0,0.0072
2374.0,0.0072
2373.0,0.0052
2372.0,0.0057
2371.0,0.0052
2370.0,0.0071
2369.0,0.0051
2368.0,0.0055
2367.0,0.005
2366.0,0.006500000000000001
2365.0,0.007
2364.0,0.006
2363.0,0.005
2362.0,0.0055
2361.0,0.0055
2360.0,0.007
2359.0,0.0054
2358.0,0.0069
2357.0,0.0059
2356.0,0.0054
2355.0,0.0054
2354.0,0.0063999999999999994
2353.0,0.0049
2352.0,0.0069
2351.0,0.0048
2350.0,0.0063
2349.0,0.0058
2348.0,0.005299999999999999
2347.0,0.005299999999999999
2346.0,0.0058
2345.0,0.0048
2344.0,0.0058
2343.0,0.0052
2342.0,0.0057
2341.0,0.0047
2340.0,0.0052
2339.0,0.0047
2338.0,0.006200000000000001
2337.0,0.0052
2336.0,0.006200000000000001
2335.0,0.006200000000000001
2334.0,0.0057
2333.0,0.0047
2332.0,0.0057
2331.0,0.0051
2330.0,0.0060999999999999995
2329.0,0.0066
2328.0,0.0046
2327.0,0.0047
2326.0,0.0052
2325.0,0.006200000000000001
2324.0,0.0052
2323.0,0.0046
2322.0,0.0051
2321.0,0.0067
2320.0,0.0047
2319.0,0.0057
2318.0,0.006200000000000001
2317.0,0.0051
2316.0,0.0056
2315.0,0.0066
2314.0,0.0066
2313.0,0.0046
2312.0,0.0065
2311.0,0.0045
2310.0,0.0045
2309.0,0.006
2308.0,0.0055
2307.0,0.004999999999999999
2306.0,0.004999999999999999
2305.0,0.006
2304.0,0.004999999999999999
2303.0,0.0045
2302.0,0.0065
2301.0,0.0046
2300.0,0.0051
2299.0,0.0056
2298.0,0.0052
2297.0,0.0060999999999999995
2296.0,0.0056
2295.0,0.0055
2294.0,0.006
2293.0,0.0049
2292.0,0.0044
2291.0,0.0064
2290.0,0.0044
2289.0,0.0054
2288.0,0.006
2287.0,0.004999999999999999
2286.0,0.0065
2285.0,0.0044
2284.0,0.0058
2283.0,0.0043
2282.0,0.0057
2281.0,0.0057
2280.0,0.0062
2279.0,0.004699999999999999
2278.0,0.004699999999999999
2277.0,0.0057
2276.0,0.0052
2275.0,0.0062
2274.0,0.0062
2273.0,0.0062
2272.0,0.005600000000000001
2271.0,0.0051
2270.0,0.006
2269.0,0.005
2268.0,0.005
2267.0,0.0051
2266.0,0.0051
2265.0,0.005600000000000001
2264.0,0.0041
2263.0,0.0046
2262.0,0.0045000000000000005
2261.0,0.0045000000000000005
2260.0,0.0045000000000000005
2259.0,0.0049
2258.0,0.006
2257.0,0.0045000000000000005
2256.0,0.005600000000000001
2255.0,0.0046
2254.0,0.0046
2253.0,0.0041
2252.0,0.005600000000000001
2251.0,0.0046
2250.0,0.0051
2249.0,0.005
2248.0,0.006
2247.0,0.004
2246.0,0.004399999999999999
2245.0,0.004399999999999999
2244.0,0.0045000000000000005
2243.0,0.0055
2242.0,0.004
2241.0,0.0051
2240.0,0.0041
2239.0,0.0041
2238.0,0.0055
2237.0,0.006
2236.0,0.0055
2235.0,0.005
2234.0,0.005
2233.0,0.004399999999999999
2232.0,0.0054
2231.0,0.0054
2230.0,0.0039
2229.0,0.005
2228.0,0.0045000000000000005
2227.0,0.0055
2226.0,0.004
2225.0,0.0061
2224.0,0.0051
2223.0,0.005600000000000001
2222.0,0.004
2221.0,0.0055
2220.0,0.0055
2219.0,0.005
2218.0,0.0045000000000000005
2217.0,0.005600000000000001
2216.0,0.0051
2215.0,0.0051
2214.0,0.005600000000000001
2213.0,0.0061
2212.0,0.0046
2211.0,0.0051
2210.0,0.0051
2209.0,0.0045000000000000005
2208.0,0.0055
2207.0,0.0055
2206.0,0.0045000000000000005
2205.0,0.0045000000000000005
2204.0,0.0041
2203.0,0.0061
2202.0,0.005
2201.0,0.0039
2200.0,0.0054
2199.0,0.0048
2198.0,0.004200000000000001
2197.0,0.0036
2196.0,0.0057
2195.0,0.0048
2194.0,0.0055
2193.0,0.0046
2192.0,0.0061
2191.0,0.006
2190.0,0.0054
2189.0,0.0059
2188.0,0.006
2187.0,0.005600000000000001
2186.0,0.0057
2185.0,0.0062
2184.0,0.0061
2183.0,0.005
2182.0,0.006
2181.0,0.0054
2180.0,0.005
2179.0,0.0061
2178.0,0.0046
2177.0,0.0062
2176.0,0.004699999999999999
2175.0,0.0057
2174.0,0.005600000000000001
2173.0,0.0041
2172.0,0.0041
2171.0,0.006
2170.0,0.0055
2169.0,0.0045000000000000005
2168.0,0.004699999999999999
2167.0,0.0063
2166.0,0.0043
2165.0,0.005900000000000001
2164.0,0.0049
2163.0,0.006
2162.0,0.0066
2161.0,0.006200000000000001
2160.0,0.0057
2159.0,0.0065
2158.0,0.0058
2157.0,0.0042
2156.0,0.0061
2155.0,0.0051
2154.0,0.0062
2153.0,0.0063
2152.0,0.0044
2151.0,0.005900000000000001
2150.0,0.005900000000000001
2149.0,0.0044
2148.0,0.0054
2147.0,0.0054
2146.0,0.0064
2145.0,0.0054
2144.0,0.0055
2143.0,0.004999999999999999
2142.0,0.0066
2141.0,0.006200000000000001
2140.0,0.0052
2139.0,0.006200000000000001
2138.0,0.0068
2137.0,0.0058
2136.0,0.0054
2135.0,0.0049
2134.0,0.0054
2133.0,0.0058
2132.0,0.0057
2131.0,0.0056
2130.0,0.0055
2129.0,0.0045
2128.0,0.0065
2127.0,0.0060999999999999995
2126.0,0.0067
2125.0,0.0057
2124.0,0.0048
2123.0,0.0063
2122.0,0.0058
2121.0,0.005299999999999999
2120.0,0.005299999999999999
2119.0,0.0052
2118.0,0.0051
2117.0,0.0045
2116.0,0.004999999999999999
2115.0,0.004999999999999999
2114.0,0.004999999999999999
2113.0,0.006
2112.0,0.004999999999999999
2111.0,0.0045
2110.0,0.0045
2109.0,0.0051
2108.0,0.0056
2107.0,0.0057
2106.0,0.0046
2105.0,0.0056
2104.0,0.0051
2103.0,0.0057
2102.0,0.0067
2101.0,0.0063
2100.0,0.0058
2099.0,0.005299999999999999
2098.0,0.0067
2097.0,0.0067
2096.0,0.0056
2095.0,0.0067
2094.0,0.0047
2093.0,0.006200000000000001
2092.0,0.0047
2091.0,0.006200000000000001
2090.0,0.0066
2089.0,0.0051
2088.0,0.006200000000000001
2087.0,0.0048
2086.0,0.0058
2085.0,0.0049
2084.0,0.0063999999999999994
2083.0,0.0059
2082.0,0.0069
2081.0,0.0063
2080.0,0.0059
2079.0,0.0063
2078.0,0.0063
2077.0,0.0048
2076.0,0.0048
2075.0,0.0068
2074.0,0.0048
2073.0,0.0058
2072.0,0.0068
2071.0,0.006200000000000001
2070.0,0.006200000000000001
2069.0,0.0051
2068.0,0.0051
2067.0,0.0066
2066.0,0.0066
2065.0,0.0066
2064.0,0.0056
2063.0,0.0066
2062.0,0.0065
2061.0,0.004999999999999999
2060.0,0.0056
2059.0,0.0045
2058.0,0.005900000000000001
2057.0,0.0063
2056.0,0.0043
2055.0,0.0044
2054.0,0.006
2053.0,0.0045
2052.0,0.0055
2051.0,0.0049
2050.0,0.0053
2049.0,0.004699999999999999
2048.0,0.004699999999999999
2047.0,0.0046
2046.0,0.005
2045.0,0.0039
2044.0,0.0037999999999999996
2043.0,0.0058
2042.0,0.0058
2041.0,0.005299999999999999
2040.0,0.0059
2039.0,0.004399999999999999
2038.0,0.0049
2037.0,0.0055
2036.0,0.0041
2035.0,0.0046
2034.0,0.005600000000000001
2033.0,0.006
2032.0,0.006
2031.0,0.0055
2030.0,0.0045000000000000005
2029.0,0.005
2028.0,0.0041
2027.0,0.005600000000000001
2026.0,0.005600000000000001
2025.0,0.0041
2024.0,0.0041
2023.0,0.004
2022.0,0.004399999999999999
2021.0,0.0037999999999999996
2020.0,0.0043
2019.0,0.004200000000000001
2018.0,0.0036
2017.0,0.0055
2016.0,0.0049
2015.0,0.0034000000000000002
2014.0,0.0044
2013.0,0.004
2012.0,0.0040999999999999995
2011.0,0.0047
2010.0,0.0047
2009.0,0.0046
2008.0,0.0051
2007.0,0.0056
2006.0,0.004200000000000001
2005.0,0.0052
2004.0,0.0058
2003.0,0.0037999999999999996
2002.0,0.0047
2001.0,0.0052
2000.0,0.0047
1999.0,0.0047
1998.0,0.005299999999999999
1997.0,0.0049
1996.0,0.006
1995.0,0.005
1994.0,0.0055
1993.0,0.0059
1992.0,0.0045000000000000005
1991.0,0.004
1990.0,0.004
1989.0,0.006
1988.0,0.0051
1987.0,0.0052
1986.0,0.0062
1985.0,0.0062
1984.0,0.0042
1983.0,0.005600000000000001
1982.0,0.0045000000000000005
1981.0,0.0045000000000000005
1980.0,0.005
1979.0,0.005
1978.0,0.0045000000000000005
1977.0,0.0055
1976.0,0.006
1975.0,0.004
1974.0,0.006
1973.0,0.004
1972.0,0.0051
1971.0,0.0046
1970.0,0.0055
1969.0,0.0045000000000000005
1968.0,0.004399999999999999
1967.0,0.0054
1966.0,0.0045000000000000005
1965.0,0.0041
1964.0,0.0052
1963.0,0.0042
1962.0,0.0051
1961.0,0.0046
1960.0,0.004
1959.0,0.006
1958.0,0.0059
1957.0,0.0054
1956.0,0.0059
1955.0,0.004399999999999999
1954.0,0.0049
1953.0,0.0059
1952.0,0.0039
1951.0,0.0055
1950.0,0.005
1949.0,0.0051
1948.0,0.0042
1947.0,0.0042
1946.0,0.0057
1945.0,0.0061
1944.0,0.0046
1943.0,0.005
1942.0,0.0049
1941.0,0.004399999999999999
1940.0,0.0054
1939.0,0.0054
1938.0,0.0059
1937.0,0.006
1936.0,0.005
1935.0,0.0055
1934.0,0.006
1933.0,0.0055
1932.0,0.005
1931.0,0.0041
1930.0,0.0061
1929.0,0.0057
1928.0,0.0062
1927.0,0.0041
1926.0,0.0046
1925.0,0.0046
1924.0,0.005600000000000001
1923.0,0.0051
1922.0,0.0051
1921.0,0.0046
1920.0,0.0061
1919.0,0.0061
1918.0,0.0051
1917.0,0.004699999999999999
1916.0,0.0057
1915.0,0.004699999999999999
1914.0,0.004699999999999999
1913.0,0.0052
1912.0,0.004699999999999999
1911.0,0.0041
1910.0,0.0051
1909.0,0.0046
1908.0,0.0061
1907.0,0.0061
1906.0,0.004
1905.0,0.0055
1904.0,0.0055
1903.0,0.0055
1902.0,0.004
1901.0,0.0045000000000000005
1900.0,0.0051
1899.0,0.005600000000000001
1898.0,0.0046
1897.0,0.0061
1896.0,0.0051
1895.0,0.0046
1894.0,0.0045000000000000005
1893.0,0.006
1892.0,0.0045000000000000005
1891.0,0.0045000000000000005
1890.0,0.004
1889.0,0.005
1888.0,0.004
1887.0,0.0045000000000000005
1886.0,0.005
1885.0,0.005
1884.0,0.0055
1883.0,0.0055
1882.0,0.006
1881.0,0.006
1880.0,0.0045000000000000005
1879.0,0.0054
1878.0,0.0059
1877.0,0.0059
1876.0,0.0039
1875.0,0.0039
1874.0,0.0054
1873.0,0.0039
1872.0,0.0055
1871.0,0.0045000000000000005
1870.0,0.0055
1869.0,0.0045000000000000005
1868.0,0.0045000000000000005
1867.0,0.006
1866.0,0.0055
1865.0,0.0055
1864.0,0.0045000000000000005
1863.0,0.004
1862.0,0.004
1861.0,0.0055
1860.0,0.004
1859.0,0.0055
1858.0,0.004
1857.0,0.0061
1856.0,0.0051
1855.0,0.0061
1854.0,0.005600000000000001
1853.0,0.0046
1852.0,0.006
1851.0,0.005
1850.0,0.0055
1849.0,0.0055
1848.0,0.0061
1847.0,0.0051
1846.0,0.0061
1845.0,0.0046
1844.0,0.0051
1843.0,0.0061
1842.0,0.005600000000000001
1841.0,0.0052
1840.0,0.0052
1839.0,0.0042
1838.0,0.0042
1837.0,0.004699999999999999
1836.0,0.0048000000000000004
1835.0,0.0043
1834.0,0.0058
1833.0,0.0043
1832.0,0.0054
1831.0,0.0054
1830.0,0.0064
1829.0,0.005900000000000001
1828.0,0.005900000000000001
1827.0,0.0053
1826.0,0.004699999999999999
1825.0,0.0042
1824.0,0.0062
1823.0,0.0052
1822.0,0.0048000000000000004
1821.0,0.0043
1820.0,0.005900000000000001
1819.0,0.0064
1818.0,0.0065
1817.0,0.004999999999999999
1816.0,0.0065
1815.0,0.0045
1814.0,0.004999999999999999
1813.0,0.0045
1812.0,0.0045
1811.0,0.006
1810.0,0.0045
1809.0,0.006
1808.0,0.0065
1807.0,0.0065
1806.0,0.006
1805.0,0.006
1804.0,0.0060999999999999995
1803.0,0.0051
1802.0,0.0046
1801.0,0.0052
1800.0,0.0052
1799.0,0.0052
1798.0,0.006200000000000001
1797.0,0.0047
1796.0,0.0047
1795.0,0.0057
1794.0,0.0058
1793.0,0.0068
1792.0,0.0049
1791.0,0.0069
1790.0,0.006500000000000001
1789.0,0.006
1788.0,0.005600000000000001
1787.0,0.0071
1786.0,0.0066
1785.0,0.0057
1784.0,0.0057
1783.0,0.0068000000000000005
1782.0,0.0068000000000000005
1781.0,0.0064
1780.0,0.005900000000000001
1779.0,0.0054
1778.0,0.005900000000000001
1777.0,0.0065
1776.0,0.0076
1775.0,0.0076
1774.0,0.0077
1773.0,0.0077
1772.0,0.0063
1771.0,0.007299999999999999
1770.0,0.0069
1769.0,0.006
1768.0,0.0081
1767.0,0.0072
1766.0,0.006699999999999999
1765.0,0.0068000000000000005
1764.0,0.0083
1763.0,0.0074
1762.0,0.0079
1761.0,0.0075
1760.0,0.0066
1759.0,0.0072
1758.0,0.008400000000000001
1757.0,0.0075
1756.0,0.0082
1755.0,0.0073
1754.0,0.0073999999999999995
1753.0,0.007500000000000001
1752.0,0.0097
1751.0,0.009300000000000001
1750.0,0.009999999999999998
1749.0,0.0092
1748.0,0.0094
1747.0,0.0086
1746.0,0.0093
1745.0,0.0105
1744.0,0.0102
1743.0,0.009500000000000001
1742.0,0.0108
1741.0,0.0115
1740.0,0.012299999999999998
1739.0,0.0115
1738.0,0.0126
1737.0,0.0118
1736.0,0.0114
1735.0,0.0125
1734.0,0.011200000000000002
1733.0,0.0115
1732.0,0.011800000000000001
1731.0,0.013
1730.0,0.0126
1729.0,0.0143
1728.0,0.0144
1727.0,0.0141
1726.0,0.0127
1725.0,0.012799999999999999
1724.0,0.0145
1723.0,0.0146
1722.0,0.0143
1721.0,0.0149
1720.0,0.0144
1719.0,0.013500000000000002
1718.0,0.0146
1717.0,0.015300000000000001
1716.0,0.015
1715.0,0.015600000000000001
1714.0,0.0147
1713.0,0.0143
1712.0,0.0159
1711.0,0.0164
1710.0,0.0164
1709.0,0.0149
1708.0,0.0164
1707.0,0.0153
1706.0,0.0153
1705.0,0.0163
1704.0,0.014799999999999999
1703.0,0.0154
1702.0,0.014799999999999999
1701.0,0.0161
1700.0,0.0149
1699.0,0.0158
1698.0,0.014199999999999999
1697.0,0.0152
1696.0,0.0148
1695.0,0.0148
1694.0,0.0149
1693.0,0.014499999999999999
1692.0,0.014100000000000001
1691.0,0.0151
1690.0,0.0142
1689.0,0.0162
1688.0,0.014799999999999999
1687.0,0.0153
1686.0,0.0149
1685.0,0.0155
1684.0,0.016300000000000002
1683.0,0.016
1682.0,0.0171
1681.0,0.0168
1680.0,0.0175
1679.0,0.0167
1678.0,0.016399999999999998
1677.0,0.0171
1676.0,0.0172
1675.0,0.0169
1674.0,0.0175
1673.0,0.0167
1672.0,0.0173
1671.0,0.017499999999999998
1670.0,0.019100000000000002
1669.0,0.0188
1668.0,0.017499999999999998
1667.0,0.019700000000000002
1666.0,0.0198
1665.0,0.019
1664.0,0.0196
1663.0,0.0198
1662.0,0.0184
1661.0,0.0186
1660.0,0.0207
1659.0,0.0188
1658.0,0.0199
1657.0,0.0204
1656.0,0.019
1655.0,0.0205
1654.0,0.0189
1653.0,0.0194
1652.0,0.0189
1651.0,0.021
1650.0,0.0195
1649.0,0.021
1648.0,0.0189
1647.0,0.020900000000000002
1646.0,0.0198
1645.0,0.0192
1644.0,0.0201
1643.0,0.0205
1642.0,0.0189
1641.0,0.0184
1640.0,0.0204
1639.0,0.0204
1638.0,0.0204
1637.0,0.0199
1636.0,0.0199
1635.0,0.0188
1634.0,0.0197
1633.0,0.0192
1632.0,0.0202
1631.0,0.0197
1630.0,0.0198
1629.0,0.0198
1628.0,0.0199
1627.0,0.0205
1626.0,0.0191
1625.0,0.0191
1624.0,0.018699999999999998
1623.0,0.0197
1622.0,0.0197
1621.0,0.0192
1620.0,0.0201
1619.0,0.0195
1618.0,0.0184
1617.0,0.020300000000000002
1616.0,0.020300000000000002
1615.0,0.0202
1614.0,0.0202
1613.0,0.0201
1612.0,0.02
1611.0,0.0178
1610.0,0.019700000000000002
1609.0,0.019200000000000002
1608.0,0.0191
1607.0,0.018099999999999998
1606.0,0.0195
1605.0,0.0194
1604.0,0.0173
1603.0,0.0171
1602.0,0.0185
1601.0,0.0179
1600.0,0.0183
1599.0,0.0182
1598.0,0.0176
1597.0,0.0175
1596.0,0.0174
1595.0,0.0168
1594.0,0.0162
1593.0,0.0172
1592.0,0.0181
1591.0,0.0171
1590.0,0.0165
1589.0,0.018000000000000002
1588.0,0.0165
1587.0,0.0165
1586.0,0.0175
1585.0,0.016
1584.0,0.0175
1583.0,0.0165
1582.0,0.0169
1581.0,0.0174
1580.0,0.0174
1579.0,0.015899999999999997
1578.0,0.0169
1577.0,0.0174
1576.0,0.0174
1575.0,0.015899999999999997
1574.0,0.015899999999999997
1573.0,0.016399999999999998
1572.0,0.015899999999999997
1571.0,0.0165
1570.0,0.017
1569.0,0.0166
1568.0,0.0172
1567.0,0.0173
1566.0,0.0173
1565.0,0.0163
1564.0,0.0184
1563.0,0.0179
1562.0,0.0175
1561.0,0.018500000000000003
1560.0,0.0171
1559.0,0.0188
1558.0,0.0188
1557.0,0.0168
1556.0,0.0189
1555.0,0.0179
1554.0,0.0174
1553.0,0.0189
1552.0,0.019
1551.0,0.0185
1550.0,0.018
1549.0,0.019100000000000002
1548.0,0.019200000000000002
1547.0,0.0187
1546.0,0.0173
1545.0,0.0179
1544.0,0.0196
1543.0,0.019200000000000002
1542.0,0.0188
1541.0,0.0193
1540.0,0.019
1539.0,0.0196
1538.0,0.0202
1537.0,0.0183
1536.0,0.0184
1535.0,0.0195
1534.0,0.0186
1533.0,0.0188
1532.0,0.019
1531.0,0.0192
1530.0,0.019299999999999998
1529.0,0.0195
1528.0,0.0212
1527.0,0.0208
1526.0,0.0205
1525.0,0.0218
1524.0,0.022
1523.0,0.0227
1522.0,0.0224
1521.0,0.0212
1520.0,0.023
1519.0,0.0217
1518.0,0.0234
1517.0,0.0231
1516.0,0.0239
1515.0,0.0247
1514.0,0.024900000000000002
1513.0,0.023299999999999998
1512.0,0.0241
1511.0,0.0258
1510.0,0.024
1509.0,0.0258
1508.0,0.0263
1507.0,0.0255
1506.0,0.0266
1505.0,0.0276
1504.0,0.029
1503.0,0.0279
1502.0,0.0283
1501.0,0.0303
1500.0,0.0294
1499.0,0.031
1498.0,0.030199999999999998
1497.0,0.031099999999999996
1496.0,0.0321
1495.0,0.033
1494.0,0.0353
1493.0,0.0362
1492.0,0.037700000000000004
1491.0,0.0369
1490.0,0.0403
1489.0,0.0419
1488.0,0.043500000000000004
1487.0,0.044
1486.0,0.0445
1485.0,0.0466
1484.0,0.0492
1483.0,0.0504
1482.0,0.0533
1481.0,0.0544
1480.0,0.0554
1479.0,0.0588
1478.0,0.0607
1477.0,0.0628
1476.0,0.0645
1475.0,0.0661
1474.0,0.069
1473.0,0.0723
1472.0,0.0737
1471.0,0.0775
1470.0,0.08
1469.0,0.0813
1468.0,0.0815
1467.0,0.0833
1466.0,0.0852
1465.0,0.0872
1464.0,0.0906
1463.0,0.091
1462.0,0.0922
1461.0,0.0947
1460.0,0.0956
1459.0,0.0954
1458.0,0.0964
1457.0,0.097
1456.0,0.0992
1455.0,0.0994
1454.0,0.0983
1453.0,0.0971
1452.0,0.0984
1451.0,0.0976
1450.0,0.0983
1449.0,0.0966
1448.0,0.0976
1447.0,0.0961
1446.0,0.0982
1445.0,0.0974
1444.0,0.0987
1443.0,0.097
1442.0,0.0975
1441.0,0.1
1440.0,0.0985
1439.0,0.1011
1438.0,0.1007
1437.0,0.1012
1436.0,0.1032
1435.0,0.1029
1434.0,0.105
1433.0,0.1046
1432.0,0.1047
1431.0,0.1049
1430.0,0.1066
1429.0,0.1069
1428.0,0.108
1427.0,0.109
1426.0,0.108
1425.0,0.1106
1424.0,0.1098
1423.0,0.11170000000000001
1422.0,0.1101
1421.0,0.1104
1420.0,0.1118
1419.0,0.1123
1418.0,0.1127
1417.0,0.1135
1416.0,0.1142
1415.0,0.1138
1414.0,0.1138
1413.0,0.1138
1412.0,0.1143
1411.0,0.1142
1410.0,0.11410000000000001
1409.0,0.1139
1408.0,0.1116
1407.0,0.1132
1406.0,0.11069999999999999
1405.0,0.1103
1404.0,0.1102
1403.0,0.1106
1402.0,0.1089
1401.0,0.1077
1400.0,0.1084
1399.0,0.1061
1398.0,0.1058
1397.0,0.1055
1396.0,0.1057
1395.0,0.1039
1394.0,0.1027
1393.0,0.10149999999999999
1392.0,0.102
1391.0,0.10200000000000001
1390.0,0.101
1389.0,0.1002
1388.0,0.1
1387.0,0.1
1386.0,0.1015
1385.0,0.1015
1384.0,0.1
1383.0,0.0995
1382.0,0.1016
1381.0,0.1007
1380.0,0.0998
1379.0,0.0999
1378.0,0.1019
1377.0,0.1018
1376.0,0.1001
1375.0,0.1002
1374.0,0.1008
1373.0,0.0992
1372.0,0.0991
1371.0,0.0979
1370.0,0.0961
1369.0,0.0974
1368.0,0.0946
1367.0,0.0939
1366.0,0.0946
1365.0,0.0934
1364.0,0.0932
1363.0,0.0916
1362.0,0.0911
1361.0,0.0907
1360.0,0.0909
1359.0,0.0911
1358.0,0.09
1357.0,0.0899
1356.0,0.0904
1355.0,0.091
1354.0,0.0916
1353.0,0.0917
1352.0,0.0909
1351.0,0.0911
1350.0,0.0913
1349.0,0.0917
1348.0,0.0925
1347.0,0.0924
1346.0,0.09179999999999999
1345.0,0.0942
1344.0,0.0946
1343.0,0.0935
1342.0,0.0939
1341.0,0.0944
1340.0,0.0965
1339.0,0.0955
1338.0,0.0966
1337.0,0.0981
1336.0,0.097
1335.0,0.0989
1334.0,0.0982
1333.0,0.0995
1332.0,0.0977
1331.0,0.0984
1330.0,0.1
1329.0,0.0996
1328.0,0.098
1327.0,0.0979
1326.0,0.0993
1325.0,0.0975
1324.0,0.0987
1323.0,0.0969
1322.0,0.0974
1321.0,0.097
1320.0,0.0955
1319.0,0.0955
1318.0,0.0959
1317.0,0.0953
1316.0,0.0947
1315.0,0.094
1314.0,0.0923
1313.0,0.0931
1312.0,0.0905
1311.0,0.0919
1310.0,0.0899
1309.0,0.0893
1308.0,0.0883
1307.0,0.0889
1306.0,0.0877
1305.0,0.0875
1304.0,0.0878
1303.0,0.0877
1302.0,0.0881
1301.0,0.088
1300.0,0.089
1299.0,0.0874
1298.0,0.0879
1297.0,0.0884
1296.0,0.0869
1295.0,0.0868
1294.0,0.0873
1293.0,0.0888
1292.0,0.0873
1291.0,0.0881
1290.0,0.0885
1289.0,0.0883
1288.0,0.0876
1287.0,0.088
1286.0,0.0858
1285.0,0.0867
1284.0,0.086
1283.0,0.0857
1282.0,0.0854
1281.0,0.0856
1280.0,0.0848
1279.0,0.0855
1278.0,0.0847
1277.0,0.0855
1276.0,0.0847
1275.0,0.0829
1274.0,0.0841
1273.0,0.0823
1272.0,0.082
1271.0,0.0818
1270.0,0.08310000000000001
1269.0,0.0813
1268.0,0.0826
1267.0,0.0828
1266.0,0.0824
1265.0,0.0815
1264.0,0.0806
1263.0,0.0811
1262.0,0.0797
1261.0,0.0782
1260.0,0.0793
1259.0,0.0775
1258.0,0.0787
1257.0,0.0786
1256.0,0.0775
1255.0,0.0791
1254.0,0.0788
1253.0,0.0791
1252.0,0.08
1251.0,0.0788
1250.0,0.0807
1249.0,0.0806
1248.0,0.0806
1247.0,0.08
1246.0,0.081
1245.0,0.0825
1244.0,0.083
1243.0,0.0825
1242.0,0.0824
1241.0,0.0843
1240.0,0.0842
1239.0,0.0855
1238.0,0.0838
1237.0,0.084
1236.0,0.0862
1235.0,0.0858
1234.0,0.0845
1233.0,0.0851
1232.0,0.0851
1231.0,0.0851
1230.0,0.0856
1229.0,0.0855
1228.0,0.08650000000000001
1227.0,0.0864
1226.0,0.0859
1225.0,0.0863
1224.0,0.0848
1223.0,0.0858
1222.0,0.0842
1221.0,0.0856
1220.0,0.0856
1219.0,0.0845
1218.0,0.0844
1217.0,0.0854
1216.0,0.084
1215.0,0.0845
1214.0,0.085
1213.0,0.0845
1212.0,0.0844
1211.0,0.0844
1210.0,0.0843
1209.0,0.0843
1208.0,0.0838
1207.0,0.0851
1206.0,0.0843
1205.0,0.0835
1204.0,0.083
1203.0,0.0819
1202.0,0.0828
1201.0,0.082
1200.0,0.0815
1199.0,0.0784
1198.0,0.0787
1197.0,0.0769
1196.0,0.0759
1195.0,0.074
1194.0,0.0724
1193.0,0.0708
1192.0,0.068
1191.0,0.0662
1190.0,0.0644
1189.0,0.0646
1188.0,0.0613
1187.0,0.0606
1186.0,0.0574
1185.0,0.0557
1184.0,0.0551
1183.0,0.053
1182.0,0.0511
1181.0,0.0512
1180.0,0.0494
1179.0,0.0487
1178.0,0.048
1177.0,0.0453
1176.0,0.043699999999999996
1175.0,0.0443
1174.0,0.0434
1173.0,0.0422
1172.0,0.042
1171.0,0.0409
1170.0,0.0413
1169.0,0.0393
1168.0,0.0383
1167.0,0.0394
1166.0,0.0381
1165.0,0.0383
1164.0,0.0391
1163.0,0.038900000000000004
1162.0,0.0388
1161.0,0.0377
1160.0,0.0382
1159.0,0.0378
1158.0,0.0381
1157.0,0.039
1156.0,0.039
1155.0,0.0398
1154.0,0.0403
1153.0,0.0415
1152.0,0.0439
1151.0,0.0441
1150.0,0.0469
1149.0,0.0499
1148.0,0.050499999999999996
1147.0,0.0535
1146.0,0.056100000000000004
1145.0,0.0561
1144.0,0.058499999999999996
1143.0,0.061900000000000004
1142.0,0.061700000000000005
1141.0,0.0655
1140.0,0.0673
1139.0,0.0685
1138.0,0.0692
1137.0,0.0724
1136.0,0.0736
1135.0,0.0753
1134.0,0.0776
1133.0,0.0776
1132.0,0.0804
1131.0,0.084
1130.0,0.0871
1129.0,0.0896
1128.0,0.0932
1127.0,0.0983
1126.0,0.1029
1125.0,0.1101
1124.0,0.1167
1123.0,0.1217
1122.0,0.129
1121.0,0.1356
1120.0,0.1423
1119.0,0.1499
1118.0,0.1567
1117.0,0.1638
1116.0,0.1704
1115.0,0.1763
1114.0,0.181
1113.0,0.1842
1112.0,0.1866
1111.0,0.188
1110.0,0.1889
1109.0,0.1901
1108.0,0.1894
1107.0,0.1869
1106.0,0.1848
1105.0,0.1824
1104.0,0.1793
1103.0,0.1784
1102.0,0.1746
1101.0,0.173
1100.0,0.1687
1099.0,0.1687
1098.0,0.1654
1097.0,0.1649
1096.0,0.1633
1095.0,0.1614
1094.0,0.1607
1093.0,0.1618
1092.0,0.1618
1091.0,0.161
1090.0,0.1609
1089.0,0.1623
1088.0,0.1629
1087.0,0.163
1086.0,0.1647
1085.0,0.165
1084.0,0.1654
1083.0,0.1663
1082.0,0.1671
1081.0,0.1686
1080.0,0.1701
1079.0,0.1696
1078.0,0.1727
1077.0,0.1733
1076.0,0.1731
1075.0,0.175
1074.0,0.1765
1073.0,0.1784
1072.0,0.1801
1071.0,0.1845
1070.0,0.1862
1069.0,0.1885
1068.0,0.1923
1067.0,0.1986
1066.0,0.2014
1065.0,0.2082
1064.0,0.2142
1063.0,0.2198
1062.0,0.2284
1061.0,0.2361
1060.0,0.2432
1059.0,0.2523
1058.0,0.2629
1057.0,0.2739
1056.0,0.284
1055.0,0.2964
1054.0,0.3095
1053.0,0.3215
1052.0,0.3358
1051.0,0.3509
1050.0,0.3668
1049.0,0.3814
1048.0,0.3967
1047.0,0.4116
1046.0,0.4259
1045.0,0.4396
1044.0,0.4524
1043.0,0.4671
1042.0,0.4788
1041.0,0.4903
1040.0,0.5009
1039.0,0.5096
1038.0,0.5176
1037.0,0.523
1036.0,0.5291
1035.0,0.5312
1034.0,0.5337999999999999
1033.0,0.5318
1032.0,0.5302
1031.0,0.5275
1030.0,0.5207999999999999
1029.0,0.5113
1028.0,0.502
1027.0,0.49
1026.0,0.4755
1025.0,0.462
1024.0,0.4431
1023.0,0.4247
1022.0,0.4054
1021.0,0.3853
1020.0,0.3634
1019.0,0.3427
1018.0,0.3213
1017.0,0.3012
1016.0,0.2837
1015.0,0.2644
1014.0,0.2491
1013.0,0.2338
1012.0,0.222
1011.0,0.2132
1010.0,0.205
1009.0,0.1974
1008.0,0.1928
1007.0,0.1926
1006.0,0.192
1005.0,0.1913
1004.0,0.194
1003.0,0.197
1002.0,0.2008
1001.0,0.2041
1000.0,0.2107
999.0,0.2148
998.0,0.2183
997.0,0.2234
996.0,0.2277
995.0,0.2308
994.0,0.2314
993.0,0.2326
992.0,0.2321
991.0,0.2311
990.0,0.2292
989.0,0.2235
988.0,0.2192
987.0,0.2141
986.0,0.2061
985.0,0.2006
984.0,0.194
983.0,0.1889
982.0,0.18460000000000001
981.0,0.1792
980.0,0.1756
979.0,0.1749
978.0,0.171
977.0,0.1687
976.0,0.1667
975.0,0.1638
974.0,0.1603
973.0,0.1568
972.0,0.1526
971.0,0.1452
970.0,0.1397
969.0,0.1337
968.0,0.127
967.0,0.1211
966.0,0.1127
965.0,0.1076
964.0,0.0994
963.0,0.0952
962.0,0.0891
961.0,0.0842
960.0,0.0804
959.0,0.0784
958.0,0.0765
957.0,0.0747
956.0,0.0741
955.0,0.0735
954.0,0.0724
953.0,0.0732
952.0,0.0729
951.0,0.0744
950.0,0.0743
949.0,0.07730000000000001
948.0,0.0762
947.0,0.0781
946.0,0.0783
945.0,0.0785
944.0,0.0814
943.0,0.0812
942.0,0.0831
941.0,0.0852
940.0,0.0891
939.0,0.0934
938.0,0.098
937.0,0.1048
936.0,0.1103
935.0,0.1177
934.0,0.1248
933.0,0.1315
932.0,0.1407
931.0,0.1467
930.0,0.1542
929.0,0.1598
928.0,0.1644
927.0,0.1687
926.0,0.1731
925.0,0.1773
924.0,0.1786
923.0,0.1799
922.0,0.1797
921.0,0.1789
920.0,0.1794
919.0,0.1754
918.0,0.1738
917.0,0.1691
916.0,0.1654
915.0,0.1597
914.0,0.1561
913.0,0.1503
912.0,0.1437
911.0,0.139
910.0,0.1322
909.0,0.126
908.0,0.1214
907.0,0.1163
906.0,0.1109
905.0,0.1053
904.0,0.1
903.0,0.0966
902.0,0.09230000000000001
901.0,0.0888
900.0,0.084
899.0,0.0804
898.0,0.0762
897.0,0.0744
896.0,0.0725
895.0,0.07
894.0,0.0684
893.0,0.0678
892.0,0.0665
891.0,0.0651
890.0,0.066
889.0,0.0669
888.0,0.0677
887.0,0.0679
886.0,0.0701
885.0,0.0721
884.0,0.0738
883.0,0.0766
882.0,0.0801
881.0,0.0827
880.0,0.0854
879.0,0.0877
878.0,0.08889999999999999
877.0,0.0926
876.0,0.0949
875.0,0.0993
874.0,0.1019
873.0,0.1044
872.0,0.1065
871.0,0.1115
870.0,0.1133
869.0,0.1163
868.0,0.1191
867.0,0.12090000000000001
866.0,0.121
865.0,0.1237
864.0,0.1237
863.0,0.1245
862.0,0.1252
861.0,0.1261
860.0,0.1266
859.0,0.1293
858.0,0.129
857.0,0.1305
856.0,0.1317
855.0,0.1345
854.0,0.1351
853.0,0.1368
852.0,0.1399
851.0,0.1419
850.0,0.1413
849.0,0.1441
848.0,0.1444
847.0,0.1451
846.0,0.1476
845.0,0.1476
844.0,0.15
843.0,0.1508
842.0,0.1497
841.0,0.1513
840.0,0.1486
839.0,0.1484
838.0,0.1455
837.0,0.1411
836.0,0.1363
835.0,0.1314
834.0,0.1243
833.0,0.12040000000000001
832.0,0.116
831.0,0.1103
830.0,0.1084
829.0,0.10439999999999999
828.0,0.1028
827.0,0.1013
826.0,0.1022
825.0,0.1026
824.0,0.1017
823.0,0.1021
822.0,0.10149999999999999
821.0,0.1035
820.0,0.1039
819.0,0.1026
818.0,0.1036
817.0,0.1025
816.0,0.1028
815.0,0.104
814.0,0.1038
813.0,0.1021
812.0,0.1027
811.0,0.1018
810.0,0.104
809.0,0.1044
808.0,0.105
807.0,0.1058
806.0,0.1064
805.0,0.1064
804.0,0.1053
803.0,0.106
802.0,0.1065
801.0,0.1064
800.0,0.1068
799.0,0.1067
798.0,0.1055
797.0,0.1059
796.0,0.1066
795.0,0.1054
794.0,0.1058
793.0,0.1072
792.0,0.1087
791.0,0.10729999999999999
790.0,0.1081
789.0,0.1109
788.0,0.11120000000000001
787.0,0.1111
786.0,0.1119
785.0,0.1137
784.0,0.11359999999999999
783.0,0.115
782.0,0.1168
781.0,0.1156
780.0,0.1184
779.0,0.11699999999999999
778.0,0.1177
777.0,0.1189
776.0,0.1192
775.0,0.122
774.0,0.1206
773.0,0.1213
772.0,0.1231
771.0,0.1249
770.0,0.1253
769.0,0.1267
768.0,0.1262
767.0,0.1268
766.0,0.1297
765.0,0.1292
764.0,0.1296
763.0,0.1305
762.0,0.1329
761.0,0.1344
760.0,0.1335
759.0,0.1356
758.0,0.1361
757.0,0.1366
756.0,0.1376
755.0,0.1406
754.0,0.1405
753.0,0.142
752.0,0.1434
751.0,0.1434
750.0,0.1439
749.0,0.1459
748.0,0.1455
747.0,0.147
746.0,0.1489
745.0,0.1499
744.0,0.1511
743.0,0.1507
742.0,0.15360000000000001
741.0,0.1536
740.0,0.1536
739.0,0.1567
738.0,0.1564
737.0,0.1592
736.0,0.1601
735.0,0.1619
734.0,0.1627
733.0,0.1638
732.0,0.1645
731.0,0.1661
730.0,0.1656
729.0,0.1672
728.0,0.1679
727.0,0.1711
726.0,0.1712
725.0,0.1733
724.0,0.1745
723.0,0.1744
722.0,0.1762
721.0,0.1771
720.0,0.18
719.0,0.1808
718.0,0.1815
717.0,0.1828
716.0,0.1852
715.0,0.1847
714.0,0.187
713.0,0.1883
712.0,0.1892
711.0,0.1905
710.0,0.1917
709.0,0.194
708.0,0.1953
707.0,0.1965
706.0,0.196
705.0,0.1982
704.0,0.1987
703.0,0.2011
702.0,0.2028
701.0,0.2046
700.0,0.2049
699.0,0.2052
698.0,0.207
697.0,0.209
696.0,0.2112
695.0,0.2126
694.0,0.2146
693.0,0.2161
692.0,0.2186
691.0,0.2211
690.0,0.223
689.0,0.2252
688.0,0.2272
687.0,0.2289
686.0,0.2336
685.0,0.2346
684.0,0.2394
683.0,0.243
682.0,0.2457
681.0,0.2475
680.0,0.2514
679.0,0.2523
678.0,0.2549
677.0,0.259
676.0,0.2599
675.0,0.2634
674.0,0.2635
673.0,0.2669
672.0,0.2669
671.0,0.2679
670.0,0.2675
669.0,0.2681
668.0,0.2708
667.0,0.2712
666.0,0.2726
665.0,0.2712
664.0,0.2711
663.0,0.2726
662.0,0.2741
661.0,0.2744
660.0,0.274
659.0,0.2771
658.0,0.276
657.0,0.2773
656.0,0.2775
655.0,0.2798
654.0,0.2789
653.0,0.2804
652.0,0.2792
651.0,0.2802
650.0,0.2814
