Created as New Dataset,Sample 004 By CHEM 370 Date Monday, March 02 2020
cm-1,A
4000.0,0.0018
3999.0,0.0018
3998.0,0.0033
3997.0,0.0032
3996.0,0.0017000000000000001
3995.0,0.0027
3994.0,0.0026
3993.0,0.0031
3992.0,0.0015999999999999999
3991.0,0.0010999999999999998
3990.0,0.0021
3989.0,0.0012000000000000001
3988.0,0.0010999999999999998
3987.0,0.0010999999999999998
3986.0,0.0026
3985.0,0.0026
3984.0,0.0021
3983.0,0.0015999999999999999
3982.0,0.0010999999999999998
3981.0,0.0015999999999999999
3980.0,0.0021
3979.0,0.0021
3978.0,0.0026
3977.0,0.0026
3976.0,0.0031
3975.0,0.0015
3974.0,0.001
3973.0,0.0009
3972.0,0.0014
3971.0,0.0014
3970.0,0.0014
3969.0,0.0014
3968.0,0.0014
3967.0,0.0009
3966.0,0.0024000000000000002
3965.0,0.0024000000000000002
3964.0,0.0019
3963.0,0.0024000000000000002
3962.0,0.0029
3961.0,0.0009
3960.0,0.0009
3959.0,0.0014
3958.0,0.0028
3957.0,0.0023
3956.0,0.0023
3955.0,0.0028
3954.0,0.0018
3953.0,0.0018
3952.0,0.0023
3951.0,0.0013
3950.0,0.0018
3949.0,0.0028
3948.0,0.0024000000000000002
3947.0,0.0009
3946.0,0.0029
3945.0,0.0028
3944.0,0.0023
3943.0,0.0023
3942.0,0.0007999999999999999
3941.0,0.0018
3940.0,0.0023
3939.0,0.0013
3938.0,0.0018
3937.0,0.0018
3936.0,0.0018
3935.0,0.0007999999999999999
3934.0,0.0007999999999999999
3933.0,0.0029
3932.0,0.0029
3931.0,0.0029
3930.0,0.0007999999999999999
3929.0,0.0023
3928.0,0.0023
3927.0,0.0013
3926.0,0.0013
3925.0,0.0007999999999999999
3924.0,0.0028
3923.0,0.0017
3922.0,0.0017
3921.0,0.0006999999999999999
3920.0,0.0017
3919.0,0.0006000000000000001
3918.0,0.0026
3917.0,0.0021000000000000003
3916.0,0.0026
3915.0,0.0011
3914.0,0.0006000000000000001
3913.0,0.0011
3912.0,0.0006000000000000001
3911.0,0.0006000000000000001
3910.0,0.0026
3909.0,0.0021999999999999997
3908.0,0.0006999999999999999
3907.0,0.0006999999999999999
3906.0,0.0027
3905.0,0.0021999999999999997
3904.0,0.0027
3903.0,0.0011
3902.0,0.0026
3901.0,0.0026
3900.0,0.0021000000000000003
3899.0,0.0026
3898.0,0.0011
3897.0,0.0006000000000000001
3896.0,0.0021000000000000003
3895.0,0.0011
3894.0,0.0021000000000000003
3893.0,0.0006000000000000001
3892.0,0.0025
3891.0,0.0025
3890.0,0.002
3889.0,0.001
3888.0,0.001
3887.0,0.0025
3886.0,0.001
3885.0,0.0025
3884.0,0.0021000000000000003
3883.0,0.0021000000000000003
3882.0,0.0011
3881.0,0.0021000000000000003
3880.0,0.0021000000000000003
3879.0,0.002
3878.0,0.0005
3877.0,0.002
3876.0,0.0025
3875.0,0.0006000000000000001
3874.0,0.0021000000000000003
3873.0,0.0021000000000000003
3872.0,0.0006000000000000001
3871.0,0.0005
3870.0,0.0015
3869.0,0.0005
3868.0,0.0016
3867.0,0.0021000000000000003
3866.0,0.0016
3865.0,0.0005
3864.0,0.0015
3863.0,0.0015
3862.0,0.0005
3861.0,0.0025
3860.0,0.0005
3859.0,0.0015
3858.0,0.00039999999999999996
3857.0,0.0009
3856.0,0.0024000000000000002
3855.0,0.002
3854.0,0.0005
3853.0,0.0025
3852.0,0.001
3851.0,0.0015
3850.0,0.0015
3849.0,0.001
3848.0,0.0025
3847.0,0.001
3846.0,0.002
3845.0,0.0015
3844.0,0.0015
3843.0,0.001
3842.0,0.0005
3841.0,0.0005
3840.0,0.0015
3839.0,0.0021000000000000003
3838.0,0.0021000000000000003
3837.0,0.0021000000000000003
3836.0,0.0026
3835.0,0.0026
3834.0,0.0006000000000000001
3833.0,0.0021000000000000003
3832.0,0.0025
3831.0,0.0025
3830.0,0.0025
3829.0,0.0009
3828.0,0.0019
3827.0,0.0014
3826.0,0.0015
3825.0,0.0005
3824.0,0.002
3823.0,0.0005
3822.0,0.0025
3821.0,0.0005
3820.0,0.0015
3819.0,0.001
3818.0,0.001
3817.0,0.0024000000000000002
3816.0,0.0009
3815.0,0.0019
3814.0,0.0024000000000000002
3813.0,0.00039999999999999996
3812.0,0.0019
3811.0,0.0009
3810.0,0.0024000000000000002
3809.0,0.00039999999999999996
3808.0,0.0019
3807.0,0.00039999999999999996
3806.0,0.00039999999999999996
3805.0,0.0025
3804.0,0.0015
3803.0,0.0025
3802.0,0.002
3801.0,0.0006000000000000001
3800.0,0.0016
3799.0,0.0011
3798.0,0.0016
3797.0,0.002
3796.0,0.0025
3795.0,0.001
3794.0,0.0014
3793.0,0.00039999999999999996
3792.0,0.0009
3791.0,0.0014
3790.0,0.002
3789.0,0.0025
3788.0,0.0025
3787.0,0.002
3786.0,0.0015
3785.0,0.002
3784.0,0.0025
3783.0,0.002
3782.0,0.0025
3781.0,0.0006000000000000001
3780.0,0.0016
3779.0,0.0021000000000000003
3778.0,0.002
3777.0,0.002
3776.0,0.0005
3775.0,0.0005
3774.0,0.0015
3773.0,0.0021000000000000003
3772.0,0.0006000000000000001
3771.0,0.0011
3770.0,0.0006000000000000001
3769.0,0.001
3768.0,0.0015
3767.0,0.001
3766.0,0.0015
3765.0,0.0005
3764.0,0.001
3763.0,0.0021000000000000003
3762.0,0.0021000000000000003
3761.0,0.0027
3760.0,0.0012
3759.0,0.0011
3758.0,0.0026
3757.0,0.0006000000000000001
3756.0,0.0026
3755.0,0.0006000000000000001
3754.0,0.0021000000000000003
3753.0,0.0027
3752.0,0.0021999999999999997
3751.0,0.0027
3750.0,0.0023
3749.0,0.0028
3748.0,0.0013
3747.0,0.0007999999999999999
3746.0,0.0007999999999999999
3745.0,0.0018
3744.0,0.0023
3743.0,0.0013
3742.0,0.0017
3741.0,0.0006999999999999999
3740.0,0.0023
3739.0,0.0028
3738.0,0.0023
3737.0,0.0013
3736.0,0.0023
3735.0,0.0023
3734.0,0.0023
3733.0,0.0007999999999999999
3732.0,0.0023
3731.0,0.0007999999999999999
3730.0,0.0023
3729.0,0.0028
3728.0,0.0018
3727.0,0.0018
3726.0,0.0028
3725.0,0.0013
3724.0,0.0019
3723.0,0.0009
3722.0,0.0019
3721.0,0.0009
3720.0,0.0029
3719.0,0.001
3718.0,0.0019
3717.0,0.0009
3716.0,0.0029
3715.0,0.0029
3714.0,0.0019
3713.0,0.0029
3712.0,0.0014
3711.0,0.0009
3710.0,0.0009
3709.0,0.0024000000000000002
3708.0,0.0009
3707.0,0.0019
3706.0,0.0024000000000000002
3705.0,0.0025
3704.0,0.001
3703.0,0.0025
3702.0,0.0026
3701.0,0.0021
3700.0,0.0026
3699.0,0.0015999999999999999
3698.0,0.002
3697.0,0.0015
3696.0,0.0031
3695.0,0.0015999999999999999
3694.0,0.0031
3693.0,0.0017000000000000001
3692.0,0.0027
3691.0,0.0033
3690.0,0.0018
3689.0,0.0013
3688.0,0.0018
3687.0,0.0028
3686.0,0.0018999999999999998
3685.0,0.0034
3684.0,0.002
3683.0,0.0035
3682.0,0.0035
3681.0,0.0015
3680.0,0.003
3679.0,0.0025
3678.0,0.0021
3677.0,0.0021
3676.0,0.0027
3675.0,0.0028
3674.0,0.0028
3673.0,0.0018999999999999998
3672.0,0.0018999999999999998
3671.0,0.0035
3670.0,0.0035
3669.0,0.004
3668.0,0.0031
3667.0,0.0040999999999999995
3666.0,0.0038
3665.0,0.0034
3664.0,0.0039
3663.0,0.0035
3662.0,0.004
3661.0,0.004
3660.0,0.0035
3659.0,0.0045000000000000005
3658.0,0.0036
3657.0,0.0048000000000000004
3656.0,0.0039
3655.0,0.004
3654.0,0.0046
3653.0,0.0042
3652.0,0.0038
3651.0,0.0045
3650.0,0.0046
3649.0,0.0056
3648.0,0.0056
3647.0,0.004200000000000001
3646.0,0.0048
3645.0,0.0049
3644.0,0.004
3643.0,0.0041
3642.0,0.004699999999999999
3641.0,0.0058
3640.0,0.0049
3639.0,0.0045
3638.0,0.0046
3637.0,0.0063
3636.0,0.0059
3635.0,0.006
3634.0,0.0061
3633.0,0.0062
3632.0,0.0073
3631.0,0.0074
3630.0,0.0066
3629.0,0.0059
3628.0,0.0071
3627.0,0.0063
3626.0,0.0069
3625.0,0.0076
3624.0,0.007299999999999999
3623.0,0.0074
3622.0,0.0070999999999999995
3621.0,0.0082
3620.0,0.0073999999999999995
3619.0,0.0076
3618.0,0.0088
3617.0,0.008499999999999999
3616.0,0.0092
3615.0,0.0095
3614.0,0.0097
3613.0,0.0095
3612.0,0.011200000000000002
3611.0,0.0105
3610.0,0.0107
3609.0,0.009999999999999998
3608.0,0.012299999999999998
3607.0,0.012
3606.0,0.010700000000000001
3605.0,0.0109
3604.0,0.0126
3603.0,0.011899999999999999
3602.0,0.0132
3601.0,0.013600000000000001
3600.0,0.0144
3599.0,0.0137
3598.0,0.015
3597.0,0.015300000000000001
3596.0,0.0151
3595.0,0.0139
3594.0,0.014799999999999999
3593.0,0.0161
3592.0,0.016900000000000002
3591.0,0.0168
3590.0,0.0171
3589.0,0.018000000000000002
3588.0,0.018000000000000002
3587.0,0.017499999999999998
3586.0,0.0188
3585.0,0.019200000000000002
3584.0,0.018
3583.0,0.0204
3582.0,0.0202
3581.0,0.0191
3580.0,0.0205
3579.0,0.020399999999999998
3578.0,0.0208
3577.0,0.0223
3576.0,0.0227
3575.0,0.0217
3574.0,0.0231
3573.0,0.0231
3572.0,0.024
3571.0,0.024900000000000002
3570.0,0.0253
3569.0,0.0253
3568.0,0.0264
3567.0,0.027
3566.0,0.026
3565.0,0.0264
3564.0,0.027299999999999998
3563.0,0.027299999999999998
3562.0,0.0283
3561.0,0.0294
3560.0,0.0304
3559.0,0.0304
3558.0,0.0314
3557.0,0.0314
3556.0,0.030899999999999997
3555.0,0.0324
3554.0,0.032
3553.0,0.0346
3552.0,0.0342
3551.0,0.0338
3550.0,0.0343
3549.0,0.0348
3548.0,0.0354
3547.0,0.037
3546.0,0.0372
3545.0,0.0388
3544.0,0.038
3543.0,0.0391
3542.0,0.0407
3541.0,0.0398
3540.0,0.0414
3539.0,0.0415
3538.0,0.0417
3537.0,0.0444
3536.0,0.0436
3535.0,0.0453
3534.0,0.0455
3533.0,0.0466
3532.0,0.0463
3531.0,0.0464
3530.0,0.0491
3529.0,0.0484
3528.0,0.0506
3527.0,0.0514
3526.0,0.0511
3525.0,0.0519
3524.0,0.0527
3523.0,0.054
3522.0,0.0552
3521.0,0.0554
3520.0,0.0547
3519.0,0.0554
3518.0,0.0561
3517.0,0.0584
3516.0,0.0577
3515.0,0.059
3514.0,0.0603
3513.0,0.0616
3512.0,0.060899999999999996
3511.0,0.062200000000000005
3510.0,0.063
3509.0,0.0643
3508.0,0.0642
3507.0,0.0665
3506.0,0.0668
3505.0,0.06709999999999999
3504.0,0.069
3503.0,0.0683
3502.0,0.0697
3501.0,0.072
3500.0,0.0729
3499.0,0.0738
3498.0,0.0747
3497.0,0.0751
3496.0,0.0765
3495.0,0.0764
3494.0,0.0768
3493.0,0.0776
3492.0,0.0795
3491.0,0.0809
3490.0,0.0798
3489.0,0.0817
3488.0,0.0815
3487.0,0.0834
3486.0,0.0844
3485.0,0.0843
3484.0,0.0868
3483.0,0.0877
3482.0,0.0877
3481.0,0.0891
3480.0,0.0891
3479.0,0.092
3478.0,0.0929
3477.0,0.0939
3476.0,0.0928
3475.0,0.09570000000000001
3474.0,0.0957
3473.0,0.0962
3472.0,0.0972
3471.0,0.0997
3470.0,0.1001
3469.0,0.1006
3468.0,0.1021
3467.0,0.1016
3466.0,0.1045
3465.0,0.1055
3464.0,0.1054
3463.0,0.1069
3462.0,0.1084
3461.0,0.1075
3460.0,0.1105
3459.0,0.1115
3458.0,0.1115
3457.0,0.1124
3456.0,0.1128
3455.0,0.1133
3454.0,0.1163
3453.0,0.1173
3452.0,0.1167
3451.0,0.1192
3450.0,0.1183
3449.0,0.1198
3448.0,0.1205
3447.0,0.1236
3446.0,0.1226
3445.0,0.1246
3444.0,0.1256
3443.0,0.1261
3442.0,0.1282
3441.0,0.1288
3440.0,0.1288
3439.0,0.1313
3438.0,0.1318
3437.0,0.1339
3436.0,0.1329
3435.0,0.136
3434.0,0.137
3433.0,0.1366
3432.0,0.1371
3431.0,0.1387
3430.0,0.1402
3429.0,0.1417
3428.0,0.1418
3427.0,0.1428
3426.0,0.1453
3425.0,0.1457
3424.0,0.1472
3423.0,0.1477
3422.0,0.1483
3421.0,0.1493
3420.0,0.1504
3419.0,0.1504
3418.0,0.1514
3417.0,0.1534
3416.0,0.1545
3415.0,0.1545
3414.0,0.157
3413.0,0.1575
3412.0,0.1595
3411.0,0.1594
3410.0,0.1609
3409.0,0.1614
3408.0,0.1634
3407.0,0.1644
3406.0,0.1654
3405.0,0.1644
3404.0,0.1675
3403.0,0.1679
3402.0,0.1679
3401.0,0.1683
3400.0,0.1697
3399.0,0.1717
3398.0,0.1721
3397.0,0.1721
3396.0,0.1741
3395.0,0.175
3394.0,0.175
3393.0,0.1775
3392.0,0.177
3391.0,0.1789
3390.0,0.1802
3389.0,0.1801
3388.0,0.1825
3387.0,0.1823
3386.0,0.1822
3385.0,0.18460000000000001
3384.0,0.186
3383.0,0.1859
3382.0,0.1857
3381.0,0.1876
3380.0,0.1879
3379.0,0.1898
3378.0,0.1902
3377.0,0.1916
3376.0,0.1925
3375.0,0.1929
3374.0,0.1937
3373.0,0.1956
3372.0,0.1949
3371.0,0.1973
3370.0,0.1961
3369.0,0.1984
3368.0,0.1977
3367.0,0.1999
3366.0,0.1991
3365.0,0.2018
3364.0,0.2005
3363.0,0.2013
3362.0,0.20350000000000001
3361.0,0.2047
3360.0,0.2044
3359.0,0.204
3358.0,0.2067
3357.0,0.2069
3356.0,0.2066
3355.0,0.2078
3354.0,0.209
3353.0,0.2102
3352.0,0.2098
3351.0,0.2094
3350.0,0.2115
3349.0,0.2121
3348.0,0.2116
3347.0,0.2132
3346.0,0.2143
3345.0,0.2143
3344.0,0.2144
3343.0,0.215
3342.0,0.216
3341.0,0.2171
3340.0,0.2166
3339.0,0.216
3338.0,0.2175
3337.0,0.217
3336.0,0.2175
3335.0,0.22
3334.0,0.2204
3333.0,0.2188
3332.0,0.2212
3331.0,0.22
3330.0,0.2204
3329.0,0.22190000000000001
3328.0,0.2228
3327.0,0.2227
3326.0,0.2226
3325.0,0.2234
3324.0,0.2237
3323.0,0.223
3322.0,0.2233
3321.0,0.2246
3320.0,0.2254
3319.0,0.2237
3318.0,0.2239
3317.0,0.2241
3316.0,0.2249
3315.0,0.2251
3314.0,0.2249
3313.0,0.2251
3312.0,0.2254
3311.0,0.2276
3310.0,0.2258
3309.0,0.226
3308.0,0.2277
3307.0,0.2273
3306.0,0.2274
3305.0,0.2265
3304.0,0.227
3303.0,0.227
3302.0,0.2285
3301.0,0.2285
3300.0,0.2285
3299.0,0.2285
3298.0,0.2266
3297.0,0.2266
3296.0,0.2286
3295.0,0.2266
3294.0,0.2286
3293.0,0.2275
3292.0,0.2264
3291.0,0.2283
3290.0,0.2261
3289.0,0.227
3288.0,0.2264
3287.0,0.2258
3286.0,0.2272
3285.0,0.2271
3284.0,0.2254
3283.0,0.2267
3282.0,0.2249
3281.0,0.2262
3280.0,0.2245
3279.0,0.2243
3278.0,0.2246
3277.0,0.2239
3276.0,0.2253
3275.0,0.2241
3274.0,0.2233
3273.0,0.223
3272.0,0.2247
3271.0,0.2239
3270.0,0.222
3269.0,0.2216
3268.0,0.2232
3267.0,0.2227
3266.0,0.2213
3265.0,0.2214
3264.0,0.2205
3263.0,0.2196
3262.0,0.2207
3261.0,0.2198
3260.0,0.2183
3259.0,0.2174
3258.0,0.2169
3257.0,0.2164
3256.0,0.2159
3255.0,0.2174
3254.0,0.2153
3253.0,0.2162
3252.0,0.2152
3251.0,0.2141
3250.0,0.2145
3249.0,0.2124
3248.0,0.2123
3247.0,0.2127
3246.0,0.2115
3245.0,0.2109
3244.0,0.2087
3243.0,0.2091
3242.0,0.2079
3241.0,0.2072
3240.0,0.2075
3239.0,0.2073
3238.0,0.2055
3237.0,0.2043
3236.0,0.2051
3235.0,0.2038
3234.0,0.2031
3233.0,0.2028
3232.0,0.202
3231.0,0.1996
3230.0,0.1983
3229.0,0.1979
3228.0,0.1986
3227.0,0.19770000000000001
3226.0,0.1958
3225.0,0.1945
3224.0,0.1941
3223.0,0.1932
3222.0,0.1933
3221.0,0.1914
3220.0,0.1906
3219.0,0.1907
3218.0,0.1888
3217.0,0.1883
3216.0,0.1873
3215.0,0.1868
3214.0,0.1843
3213.0,0.1838
3212.0,0.1829
3211.0,0.1824
3210.0,0.1804
3209.0,0.1799
3208.0,0.17779999999999999
3207.0,0.17830000000000001
3206.0,0.1778
3205.0,0.1753
3204.0,0.1752
3203.0,0.1742
3202.0,0.1727
3201.0,0.1716
3200.0,0.1701
3199.0,0.1695
3198.0,0.1689
3197.0,0.1667
3196.0,0.1671
3195.0,0.164
3194.0,0.1639
3193.0,0.1629
3192.0,0.1628
3191.0,0.1612
3190.0,0.1602
3189.0,0.1586
3188.0,0.1584
3187.0,0.1568
3186.0,0.1562
3185.0,0.1546
3184.0,0.153
3183.0,0.1514
3182.0,0.1498
3181.0,0.1491
3180.0,0.149
3179.0,0.1478
3178.0,0.1457
3177.0,0.1461
3176.0,0.1445
3175.0,0.1428
3174.0,0.1412
3173.0,0.14150000000000001
3172.0,0.1394
3171.0,0.1378
3170.0,0.1367
3169.0,0.1365
3168.0,0.1354
3167.0,0.1348
3166.0,0.1317
3165.0,0.131
3164.0,0.1314
3163.0,0.1298
3162.0,0.1288
3161.0,0.1262
3160.0,0.1256
3159.0,0.1261
3158.0,0.1235
3157.0,0.1219
3156.0,0.1213
3155.0,0.1207
3154.0,0.1187
3153.0,0.1191
3152.0,0.11649999999999999
3151.0,0.1154
3150.0,0.1148
3149.0,0.1137
3148.0,0.1137
3147.0,0.1132
3146.0,0.1112
3145.0,0.11120000000000001
3144.0,0.1102
3143.0,0.1092
3142.0,0.1066
3141.0,0.1066
3140.0,0.1041
3139.0,0.1036
3138.0,0.102
3137.0,0.102
3136.0,0.101
3135.0,0.1011
3134.0,0.0997
3133.0,0.0988
3132.0,0.0983
3131.0,0.0969
3130.0,0.0945
3129.0,0.094
3128.0,0.0926
3127.0,0.0932
3126.0,0.09230000000000001
3125.0,0.0919
3124.0,0.0905
3123.0,0.089
3122.0,0.0881
3121.0,0.0867
3120.0,0.0854
3119.0,0.0845
3118.0,0.0837
3117.0,0.0838
3116.0,0.0835
3115.0,0.0812
3114.0,0.0804
3113.0,0.0816
3112.0,0.0793
3111.0,0.078
3110.0,0.0777
3109.0,0.0764
3108.0,0.0767
3107.0,0.0754
3106.0,0.0746
3105.0,0.0754
3104.0,0.0741
3103.0,0.0718
3102.0,0.0716
3101.0,0.0709
3100.0,0.0712
3099.0,0.069
3098.0,0.0688
3097.0,0.0696
3096.0,0.0679
3095.0,0.0677
3094.0,0.0655
3093.0,0.0664
3092.0,0.0642
3091.0,0.0641
3090.0,0.0645
3089.0,0.0629
3088.0,0.062299999999999994
3087.0,0.0612
3086.0,0.0606
3085.0,0.0605
3084.0,0.0609
3083.0,0.0603
3082.0,0.0598
3081.0,0.0582
3080.0,0.0592
3079.0,0.0571
3078.0,0.057
3077.0,0.0569
3076.0,0.0553
3075.0,0.0558
3074.0,0.0548
3073.0,0.0548
3072.0,0.0543
3071.0,0.0533
3070.0,0.052199999999999996
3069.0,0.0517
3068.0,0.0528
3067.0,0.0518
3066.0,0.0503
3065.0,0.0508
3064.0,0.0504
3063.0,0.0484
3062.0,0.0495
3061.0,0.0485
3060.0,0.047599999999999996
3059.0,0.0487
3058.0,0.0478
3057.0,0.0478
3056.0,0.0464
3055.0,0.047
3054.0,0.0451
3053.0,0.0462
3052.0,0.0443
3051.0,0.0434
3050.0,0.0431
3049.0,0.0443
3048.0,0.0439
3047.0,0.042499999999999996
3046.0,0.0416
3045.0,0.041299999999999996
3044.0,0.0409
3043.0,0.0411
3042.0,0.0407
3041.0,0.0404
3040.0,0.0406
3039.0,0.0403
3038.0,0.0405
3037.0,0.0397
3036.0,0.0394
3035.0,0.038
3034.0,0.0388
3033.0,0.038
3032.0,0.0382
3031.0,0.038
3030.0,0.0382
3029.0,0.0385
3028.0,0.0372
3027.0,0.037
3026.0,0.0358
3025.0,0.0355
3024.0,0.0368
3023.0,0.0361
3022.0,0.0354
3021.0,0.0357
3020.0,0.0346
3019.0,0.0349
3018.0,0.0342
3017.0,0.036000000000000004
3016.0,0.0358
3015.0,0.0357
3014.0,0.0346
3013.0,0.035
3012.0,0.0349
3011.0,0.0349
3010.0,0.033299999999999996
3009.0,0.0338
3008.0,0.0352
3007.0,0.0352
3006.0,0.0337
3005.0,0.0338
3004.0,0.0354
3003.0,0.0336
3002.0,0.0338
3001.0,0.036000000000000004
3000.0,0.0358
2999.0,0.0346
2998.0,0.036
2997.0,0.0359
2996.0,0.0369
2995.0,0.0376
2994.0,0.0392
2993.0,0.0385
2992.0,0.0398
2991.0,0.0412
2990.0,0.0407
2989.0,0.0417
2988.0,0.0443
2987.0,0.046
2986.0,0.0458
2985.0,0.0476
2984.0,0.048
2983.0,0.0509
2982.0,0.0529
2981.0,0.0524
2980.0,0.054
2979.0,0.056
2978.0,0.0575
2977.0,0.0599
2976.0,0.0604
2975.0,0.0618
2974.0,0.0626
2973.0,0.0648
2972.0,0.0659
2971.0,0.0669
2970.0,0.0678
2969.0,0.0697
2968.0,0.0704
2967.0,0.069
2966.0,0.0716
2965.0,0.0722
2964.0,0.0728
2963.0,0.0715
2962.0,0.0736
2961.0,0.0744
2960.0,0.0747
2959.0,0.0762
2958.0,0.0772
2957.0,0.0777
2956.0,0.0788
2955.0,0.0795
2954.0,0.0822
2953.0,0.0814
2952.0,0.0847
2951.0,0.0849
2950.0,0.0872
2949.0,0.0869
2948.0,0.0892
2947.0,0.091
2946.0,0.0917
2945.0,0.0914
2944.0,0.0931
2943.0,0.09570000000000001
2942.0,0.0957
2941.0,0.0962
2940.0,0.0965
2939.0,0.0993
2938.0,0.098
2937.0,0.1006
2936.0,0.1002
2935.0,0.1011
2934.0,0.1013
2933.0,0.1009
2932.0,0.0998
2931.0,0.0997
2930.0,0.0993
2929.0,0.0999
2928.0,0.0989
2927.0,0.0988
2926.0,0.0976
2925.0,0.0964
2924.0,0.0971
2923.0,0.0953
2922.0,0.0959
2921.0,0.0929
2920.0,0.0919
2919.0,0.0915
2918.0,0.09
2917.0,0.0901
2916.0,0.0887
2915.0,0.0884
2914.0,0.0876
2913.0,0.0864
2912.0,0.0868
2911.0,0.0863
2910.0,0.0844
2909.0,0.085
2908.0,0.0847
2907.0,0.0849
2906.0,0.0854
2905.0,0.0834
2904.0,0.0835
2903.0,0.0842
2902.0,0.08600000000000001
2901.0,0.0844
2900.0,0.0854
2899.0,0.0874
2898.0,0.0865
2897.0,0.0882
2896.0,0.089
2895.0,0.0894
2894.0,0.0913
2893.0,0.0917
2892.0,0.0932
2891.0,0.0942
2890.0,0.0951
2889.0,0.0946
2888.0,0.096
2887.0,0.0979
2886.0,0.0973
2885.0,0.0995
2884.0,0.1002
2883.0,0.1002
2882.0,0.1011
2881.0,0.0999
2880.0,0.0995
2879.0,0.1
2878.0,0.1008
2877.0,0.0989
2876.0,0.1003
2875.0,0.0996
2874.0,0.0987
2873.0,0.0977
2872.0,0.0945
2871.0,0.0947
2870.0,0.0919
2869.0,0.0925
2868.0,0.0905
2867.0,0.0875
2866.0,0.088
2865.0,0.0864
2864.0,0.0839
2863.0,0.0824
2862.0,0.0815
2861.0,0.0805
2860.0,0.0782
2859.0,0.07579999999999999
2858.0,0.075
2857.0,0.0748
2856.0,0.0731
2855.0,0.072
2854.0,0.0709
2853.0,0.0698
2852.0,0.0678
2851.0,0.0688
2850.0,0.0659
2849.0,0.0669
2848.0,0.0661
2847.0,0.06369999999999999
2846.0,0.0634
2845.0,0.0616
2844.0,0.0623
2843.0,0.062
2842.0,0.059199999999999996
2841.0,0.0605
2840.0,0.0598
2839.0,0.0571
2838.0,0.0579
2837.0,0.0558
2836.0,0.0571
2835.0,0.0565
2834.0,0.0549
2833.0,0.0548
2832.0,0.0532
2831.0,0.0526
2830.0,0.052
2829.0,0.0514
2828.0,0.0508
2827.0,0.0507
2826.0,0.0502
2825.0,0.0501
2824.0,0.0501
2823.0,0.0475
2822.0,0.0475
2821.0,0.0485
2820.0,0.048
2819.0,0.0469
2818.0,0.046400000000000004
2817.0,0.0444
2816.0,0.0459
2815.0,0.0444
2814.0,0.0439
2813.0,0.0434
2812.0,0.041999999999999996
2811.0,0.0425
2810.0,0.0431
2809.0,0.0406
2808.0,0.0417
2807.0,0.0403
2806.0,0.0404
2805.0,0.0409
2804.0,0.039
2803.0,0.0392
2802.0,0.0398
2801.0,0.0389
2800.0,0.039
2799.0,0.0376
2798.0,0.0378
2797.0,0.0374
2796.0,0.0361
2795.0,0.0368
2794.0,0.0355
2793.0,0.0347
2792.0,0.0364
2791.0,0.0341
2790.0,0.0358
2789.0,0.034
2788.0,0.0342
2787.0,0.0349
2786.0,0.0342
2785.0,0.0329
2784.0,0.0327
2783.0,0.0339
2782.0,0.0337
2781.0,0.0335
2780.0,0.0318
2779.0,0.031599999999999996
2778.0,0.0323
2777.0,0.030600000000000002
2776.0,0.030899999999999997
2775.0,0.0323
2774.0,0.0321
2773.0,0.0299
2772.0,0.031200000000000002
2771.0,0.0306
2770.0,0.0299
2769.0,0.031200000000000002
2768.0,0.0311
2767.0,0.028999999999999998
2766.0,0.0288
2765.0,0.0302
2764.0,0.0296
2763.0,0.028999999999999998
2762.0,0.0283
2761.0,0.0287
2760.0,0.030000000000000002
2759.0,0.028399999999999998
2758.0,0.0278
2757.0,0.0287
2756.0,0.0291
2755.0,0.0285
2754.0,0.0288
2753.0,0.0287
2752.0,0.0271
2751.0,0.028
2750.0,0.0279
2749.0,0.0283
2748.0,0.0282
2747.0,0.0271
2746.0,0.0281
2745.0,0.0265
2744.0,0.0264
2743.0,0.0273
2742.0,0.0282
2741.0,0.0276
2740.0,0.027
2739.0,0.0264
2738.0,0.0273
2737.0,0.0257
2736.0,0.025599999999999998
2735.0,0.0255
2734.0,0.026
2733.0,0.0259
2732.0,0.0273
2731.0,0.0256
2730.0,0.0255
2729.0,0.0254
2728.0,0.0253
2727.0,0.0252
2726.0,0.0251
2725.0,0.024499999999999997
2724.0,0.0249
2723.0,0.0263
2722.0,0.0251
2721.0,0.024
2720.0,0.0259
2719.0,0.0253
2718.0,0.0242
2717.0,0.0251
2716.0,0.0239
2715.0,0.023799999999999998
2714.0,0.0231
2713.0,0.025
2712.0,0.0239
2711.0,0.0238
2710.0,0.0246
2709.0,0.0245
2708.0,0.0239
2707.0,0.0223
2706.0,0.022699999999999998
2705.0,0.022099999999999998
2704.0,0.022
2703.0,0.0239
2702.0,0.0219
2701.0,0.0223
2700.0,0.023200000000000002
2699.0,0.0231
2698.0,0.0215
2697.0,0.022
2696.0,0.0234
2695.0,0.0213
2694.0,0.0217
2693.0,0.023100000000000002
2692.0,0.023100000000000002
2691.0,0.023
2690.0,0.0225
2689.0,0.0214
2688.0,0.0214
2687.0,0.0219
2686.0,0.0228
2685.0,0.0207
2684.0,0.0212
2683.0,0.0227
2682.0,0.022600000000000002
2681.0,0.0206
2680.0,0.0216
2679.0,0.0225
2678.0,0.020399999999999998
2677.0,0.0224
2676.0,0.0223
2675.0,0.0218
2674.0,0.0202
2673.0,0.0207
2672.0,0.0217
2671.0,0.0216
2670.0,0.0211
2669.0,0.022000000000000002
2668.0,0.021
2667.0,0.020399999999999998
2666.0,0.0218
2665.0,0.019799999999999998
2664.0,0.0197
2663.0,0.0202
2662.0,0.0202
2661.0,0.0206
2660.0,0.0201
2659.0,0.0195
2658.0,0.020900000000000002
2657.0,0.0203
2656.0,0.019299999999999998
2655.0,0.0202
2654.0,0.0207
2653.0,0.0191
2652.0,0.0201
2651.0,0.02
2650.0,0.020900000000000002
2649.0,0.0188
2648.0,0.0198
2647.0,0.0207
2646.0,0.0192
2645.0,0.0201
2644.0,0.02
2643.0,0.0184
2642.0,0.0183
2641.0,0.0198
2640.0,0.0202
2639.0,0.0186
2638.0,0.0185
2637.0,0.0178
2636.0,0.019700000000000002
2635.0,0.0182
2634.0,0.018099999999999998
2633.0,0.0186
2632.0,0.017499999999999998
2631.0,0.0184
2630.0,0.0187
2629.0,0.0176
2628.0,0.019
2627.0,0.0169
2626.0,0.0174
2625.0,0.0183
2624.0,0.0166
2623.0,0.0165
2622.0,0.016399999999999998
2621.0,0.0168
2620.0,0.0177
2619.0,0.0172
2618.0,0.0181
2617.0,0.018000000000000002
2616.0,0.0169
2615.0,0.0168
2614.0,0.0157
2613.0,0.0171
2612.0,0.017400000000000002
2611.0,0.015299999999999998
2610.0,0.0167
2609.0,0.015099999999999999
2608.0,0.015
2607.0,0.0154
2606.0,0.0158
2605.0,0.016300000000000002
2604.0,0.014699999999999998
2603.0,0.0156
2602.0,0.0155
2601.0,0.0154
2600.0,0.0153
2599.0,0.0157
2598.0,0.0142
2597.0,0.015600000000000001
2596.0,0.014100000000000001
2595.0,0.014499999999999999
2594.0,0.015300000000000001
2593.0,0.0147
2592.0,0.013600000000000001
2591.0,0.0155
2590.0,0.0145
2589.0,0.0149
2588.0,0.0139
2587.0,0.0133
2586.0,0.0143
2585.0,0.015300000000000001
2584.0,0.0137
2583.0,0.0132
2582.0,0.015099999999999999
2581.0,0.0145
2580.0,0.015
2579.0,0.0144
2578.0,0.0139
2577.0,0.0143
2576.0,0.012799999999999999
2575.0,0.0132
2574.0,0.0127
2573.0,0.0141
2572.0,0.0136
2571.0,0.014599999999999998
2570.0,0.014499999999999999
2569.0,0.013
2568.0,0.0135
2567.0,0.0129
2566.0,0.012799999999999999
2565.0,0.0138
2564.0,0.012199999999999999
2563.0,0.012199999999999999
2562.0,0.0137
2561.0,0.013600000000000001
2560.0,0.0126
2559.0,0.0142
2558.0,0.0127
2557.0,0.012199999999999999
2556.0,0.0137
2555.0,0.0137
2554.0,0.0121
2553.0,0.013600000000000001
2552.0,0.0135
2551.0,0.012499999999999999
2550.0,0.0119
2549.0,0.0129
2548.0,0.0119
2547.0,0.0134
2546.0,0.0139
2545.0,0.0123
2544.0,0.013300000000000001
2543.0,0.011800000000000001
2542.0,0.011800000000000001
2541.0,0.013300000000000001
2540.0,0.0138
2539.0,0.0129
2538.0,0.0129
2537.0,0.0119
2536.0,0.0128
2535.0,0.0127
2534.0,0.0126
2533.0,0.013600000000000001
2532.0,0.0131
2531.0,0.0126
2530.0,0.0131
2529.0,0.0115
2528.0,0.013000000000000001
2527.0,0.0125
2526.0,0.0115
2525.0,0.013399999999999999
2524.0,0.0114
2523.0,0.0129
2522.0,0.0133
2521.0,0.0133
2520.0,0.012700000000000001
2519.0,0.0132
2518.0,0.011200000000000002
2517.0,0.011200000000000002
2516.0,0.0132
2515.0,0.011200000000000002
2514.0,0.0132
2513.0,0.0131
2512.0,0.0116
2511.0,0.011099999999999999
2510.0,0.013000000000000001
2509.0,0.0115
2508.0,0.012400000000000001
2507.0,0.012400000000000001
2506.0,0.0123
2505.0,0.0123
2504.0,0.012799999999999999
2503.0,0.0108
2502.0,0.0112
2501.0,0.0112
2500.0,0.0121
2499.0,0.0115
2498.0,0.0114
2497.0,0.012400000000000001
2496.0,0.0119
2495.0,0.0103
2494.0,0.010799999999999999
2493.0,0.012199999999999999
2492.0,0.0112
2491.0,0.0107
2490.0,0.0102
2489.0,0.011600000000000001
2488.0,0.0106
2487.0,0.011
2486.0,0.012
2485.0,0.0119
2484.0,0.0108
2483.0,0.011800000000000001
2482.0,0.010199999999999999
2481.0,0.0107
2480.0,0.0101
2479.0,0.0106
2478.0,0.009600000000000001
2477.0,0.011000000000000001
2476.0,0.011000000000000001
2475.0,0.009500000000000001
2474.0,0.0109
2473.0,0.009899999999999999
2472.0,0.0093
2471.0,0.0092
2470.0,0.0102
2469.0,0.0101
2468.0,0.01
2467.0,0.011
2466.0,0.010400000000000001
2465.0,0.0094
2464.0,0.010400000000000001
2463.0,0.0099
2462.0,0.0108
2461.0,0.0087
2460.0,0.009099999999999999
2459.0,0.009099999999999999
2458.0,0.0101
2457.0,0.0095
2456.0,0.0095
2455.0,0.0094
2454.0,0.008299999999999998
2453.0,0.008799999999999999
2452.0,0.008199999999999999
2451.0,0.0091
2450.0,0.0095
2449.0,0.009
2448.0,0.008
2447.0,0.008
2446.0,0.0095
2445.0,0.009899999999999999
2444.0,0.0083
2443.0,0.0092
2442.0,0.008199999999999999
2441.0,0.0097
2440.0,0.0097
2439.0,0.0081
2438.0,0.007500000000000001
2437.0,0.009500000000000001
2436.0,0.0084
2435.0,0.0083
2434.0,0.008700000000000001
2433.0,0.008700000000000001
2432.0,0.007599999999999999
2431.0,0.0091
2430.0,0.0091
2429.0,0.0081
2428.0,0.0081
2427.0,0.0075
2426.0,0.0079
2425.0,0.0079
2424.0,0.008400000000000001
2423.0,0.0068
2422.0,0.0083
2421.0,0.0087
2420.0,0.0071
2419.0,0.0076
2418.0,0.008
2417.0,0.008
2416.0,0.0074
2415.0,0.0069
2414.0,0.0068000000000000005
2413.0,0.0078
2412.0,0.008199999999999999
2411.0,0.006699999999999999
2410.0,0.0072
2409.0,0.0072
2408.0,0.0077
2407.0,0.0061
2406.0,0.007600000000000001
2405.0,0.0066
2404.0,0.0075
2403.0,0.006
2402.0,0.006
2401.0,0.0059
2400.0,0.0079
2399.0,0.0069
2398.0,0.0059
2397.0,0.0058
2396.0,0.007299999999999999
2395.0,0.0063
2394.0,0.006200000000000001
2393.0,0.0077
2392.0,0.0072
2391.0,0.0072
2390.0,0.0072
2389.0,0.0072
2388.0,0.0077
2387.0,0.0056
2386.0,0.0066
2385.0,0.0055
2384.0,0.0074
2383.0,0.0073
2382.0,0.0058
2381.0,0.0068000000000000005
2380.0,0.0073
2379.0,0.0053
2378.0,0.0063
2377.0,0.006699999999999999
2376.0,0.0052
2375.0,0.0057
2374.0,0.0052
2373.0,0.0057
2372.0,0.0072
2371.0,0.006699999999999999
2370.0,0.0061
2369.0,0.0066
2368.0,0.007
2367.0,0.007
2366.0,0.0055
2365.0,0.005
2364.0,0.006
2363.0,0.005
2362.0,0.006500000000000001
2361.0,0.0055
2360.0,0.006500000000000001
2359.0,0.0063999999999999994
2358.0,0.0049
2357.0,0.0059
2356.0,0.0069
2355.0,0.0063999999999999994
2354.0,0.0059
2353.0,0.0054
2352.0,0.0059
2351.0,0.005299999999999999
2350.0,0.0058
2349.0,0.0048
2348.0,0.0058
2347.0,0.0063
2346.0,0.005299999999999999
2345.0,0.0063
2344.0,0.0058
2343.0,0.0052
2342.0,0.0057
2341.0,0.006200000000000001
2340.0,0.0052
2339.0,0.0067
2338.0,0.0067
2337.0,0.0057
2336.0,0.0047
2335.0,0.006200000000000001
2334.0,0.0067
2333.0,0.0047
2332.0,0.0047
2331.0,0.0046
2330.0,0.0060999999999999995
2329.0,0.0066
2328.0,0.0066
2327.0,0.0057
2326.0,0.0067
2325.0,0.0067
2324.0,0.0047
2323.0,0.0046
2322.0,0.0046
2321.0,0.0067
2320.0,0.0057
2319.0,0.0057
2318.0,0.006200000000000001
2317.0,0.0051
2316.0,0.0046
2315.0,0.0060999999999999995
2314.0,0.0046
2313.0,0.0051
2312.0,0.0065
2311.0,0.0055
2310.0,0.0065
2309.0,0.0055
2308.0,0.004999999999999999
2307.0,0.0055
2306.0,0.004999999999999999
2305.0,0.004999999999999999
2304.0,0.006
2303.0,0.0055
2302.0,0.0045
2301.0,0.0056
2300.0,0.0051
2299.0,0.0056
2298.0,0.0047
2297.0,0.0066
2296.0,0.0066
2295.0,0.0065
2294.0,0.006
2293.0,0.0044
2292.0,0.005900000000000001
2291.0,0.0044
2290.0,0.005900000000000001
2289.0,0.0049
2288.0,0.0045
2287.0,0.0045
2286.0,0.0045
2285.0,0.0044
2284.0,0.0043
2283.0,0.0058
2282.0,0.0052
2281.0,0.0057
2280.0,0.0042
2279.0,0.0062
2278.0,0.004699999999999999
2277.0,0.0062
2276.0,0.0042
2275.0,0.0042
2274.0,0.004699999999999999
2273.0,0.004699999999999999
2272.0,0.0051
2271.0,0.0051
2270.0,0.0055
2269.0,0.006
2268.0,0.0045000000000000005
2267.0,0.0041
2266.0,0.0046
2265.0,0.0051
2264.0,0.0046
2263.0,0.0061
2262.0,0.005
2261.0,0.0055
2260.0,0.006
2259.0,0.0049
2258.0,0.004
2257.0,0.0055
2256.0,0.0061
2255.0,0.0041
2254.0,0.0046
2253.0,0.0051
2252.0,0.0046
2251.0,0.0051
2250.0,0.0061
2249.0,0.0055
2248.0,0.004
2247.0,0.006
2246.0,0.0039
2245.0,0.0054
2244.0,0.0045000000000000005
2243.0,0.006
2242.0,0.0055
2241.0,0.0041
2240.0,0.0041
2239.0,0.0046
2238.0,0.0055
2237.0,0.005
2236.0,0.0055
2235.0,0.0055
2234.0,0.0055
2233.0,0.0054
2232.0,0.0049
2231.0,0.0059
2230.0,0.0049
2229.0,0.0045000000000000005
2228.0,0.004
2227.0,0.006
2226.0,0.006
2225.0,0.005600000000000001
2224.0,0.0046
2223.0,0.0046
2222.0,0.0045000000000000005
2221.0,0.006
2220.0,0.004
2219.0,0.006
2218.0,0.004
2217.0,0.0061
2216.0,0.0051
2215.0,0.0041
2214.0,0.005600000000000001
2213.0,0.005600000000000001
2212.0,0.0061
2211.0,0.0041
2210.0,0.0041
2209.0,0.004
2208.0,0.0045000000000000005
2207.0,0.006
2206.0,0.006
2205.0,0.006
2204.0,0.0051
2203.0,0.0061
2202.0,0.006
2201.0,0.004399999999999999
2200.0,0.0039
2199.0,0.0048
2198.0,0.004200000000000001
2197.0,0.0046
2196.0,0.0052
2195.0,0.0043
2194.0,0.005
2193.0,0.005600000000000001
2192.0,0.0051
2191.0,0.004
2190.0,0.0054
2189.0,0.004399999999999999
2188.0,0.0045000000000000005
2187.0,0.005600000000000001
2186.0,0.004699999999999999
2185.0,0.0057
2184.0,0.005600000000000001
2183.0,0.005
2182.0,0.006
2181.0,0.0039
2180.0,0.005
2179.0,0.0046
2178.0,0.005600000000000001
2177.0,0.0052
2176.0,0.0042
2175.0,0.004699999999999999
2174.0,0.0051
2173.0,0.0041
2172.0,0.0051
2171.0,0.004
2170.0,0.0055
2169.0,0.006
2168.0,0.004699999999999999
2167.0,0.0063
2166.0,0.0043
2165.0,0.005900000000000001
2164.0,0.0049
2163.0,0.0065
2162.0,0.0056
2161.0,0.0057
2160.0,0.0057
2159.0,0.0055
2158.0,0.0053
2157.0,0.004699999999999999
2156.0,0.0061
2155.0,0.005600000000000001
2154.0,0.004699999999999999
2153.0,0.0048000000000000004
2152.0,0.0044
2151.0,0.0054
2150.0,0.005900000000000001
2149.0,0.0049
2148.0,0.0054
2147.0,0.005900000000000001
2146.0,0.0044
2145.0,0.0049
2144.0,0.006
2143.0,0.004999999999999999
2142.0,0.0066
2141.0,0.0047
2140.0,0.0047
2139.0,0.0067
2138.0,0.005299999999999999
2137.0,0.0063
2136.0,0.0049
2135.0,0.0069
2134.0,0.0049
2133.0,0.0068
2132.0,0.0067
2131.0,0.0046
2130.0,0.0065
2129.0,0.0045
2128.0,0.004999999999999999
2127.0,0.0066
2126.0,0.0067
2125.0,0.0047
2124.0,0.0048
2123.0,0.005299999999999999
2122.0,0.0063
2121.0,0.0063
2120.0,0.005299999999999999
2119.0,0.0057
2118.0,0.0051
2117.0,0.0065
2116.0,0.004999999999999999
2115.0,0.004999999999999999
2114.0,0.0045
2113.0,0.004999999999999999
2112.0,0.0055
2111.0,0.0065
2110.0,0.0065
2109.0,0.0066
2108.0,0.0051
2107.0,0.0052
2106.0,0.0051
2105.0,0.0051
2104.0,0.0046
2103.0,0.0057
2102.0,0.0067
2101.0,0.0068
2100.0,0.0068
2099.0,0.0058
2098.0,0.006200000000000001
2097.0,0.0047
2096.0,0.0056
2095.0,0.0057
2094.0,0.0052
2093.0,0.006200000000000001
2092.0,0.0052
2091.0,0.0057
2090.0,0.0060999999999999995
2089.0,0.0066
2088.0,0.006200000000000001
2087.0,0.0068
2086.0,0.0058
2085.0,0.0054
2084.0,0.0049
2083.0,0.0059
2082.0,0.0054
2081.0,0.0048
2080.0,0.0049
2079.0,0.0058
2078.0,0.0058
2077.0,0.005299999999999999
2076.0,0.0048
2075.0,0.005299999999999999
2074.0,0.005299999999999999
2073.0,0.0058
2072.0,0.0048
2071.0,0.006200000000000001
2070.0,0.0067
2069.0,0.0066
2068.0,0.0066
2067.0,0.0060999999999999995
2066.0,0.0066
2065.0,0.0051
2064.0,0.0066
2063.0,0.0051
2062.0,0.0065
2061.0,0.0055
2060.0,0.0051
2059.0,0.0065
2058.0,0.005900000000000001
2057.0,0.0043
2056.0,0.0063
2055.0,0.0064
2054.0,0.006
2053.0,0.0055
2052.0,0.006
2051.0,0.005900000000000001
2050.0,0.0063
2049.0,0.0057
2048.0,0.0062
2047.0,0.0041
2046.0,0.005
2045.0,0.0059
2044.0,0.005299999999999999
2043.0,0.0058
2042.0,0.0058
2041.0,0.0048
2040.0,0.0054
2039.0,0.0049
2038.0,0.0059
2037.0,0.006
2036.0,0.0051
2035.0,0.0046
2034.0,0.0051
2033.0,0.004
2032.0,0.005
2031.0,0.005
2030.0,0.004
2029.0,0.006
2028.0,0.0051
2027.0,0.0061
2026.0,0.0061
2025.0,0.0041
2024.0,0.0041
2023.0,0.005
2022.0,0.004399999999999999
2021.0,0.0037999999999999996
2020.0,0.005299999999999999
2019.0,0.004200000000000001
2018.0,0.0056
2017.0,0.004999999999999999
2016.0,0.0044
2015.0,0.0039000000000000003
2014.0,0.0054
2013.0,0.0034999999999999996
2012.0,0.0040999999999999995
2011.0,0.0052
2010.0,0.004200000000000001
2009.0,0.0051
2008.0,0.0036
2007.0,0.0040999999999999995
2006.0,0.0052
2005.0,0.004200000000000001
2004.0,0.0037999999999999996
2003.0,0.0037999999999999996
2002.0,0.0052
2001.0,0.0047
2000.0,0.0057
1999.0,0.0037
1998.0,0.0037999999999999996
1997.0,0.0039
1996.0,0.006
1995.0,0.006
1994.0,0.0055
1993.0,0.0054
1992.0,0.004
1991.0,0.0055
1990.0,0.006
1989.0,0.005
1988.0,0.0051
1987.0,0.0057
1986.0,0.0057
1985.0,0.0042
1984.0,0.0042
1983.0,0.0046
1982.0,0.005
1981.0,0.004
1980.0,0.004
1979.0,0.004
1978.0,0.0055
1977.0,0.006
1976.0,0.0055
1975.0,0.0045000000000000005
1974.0,0.0045000000000000005
1973.0,0.004
1972.0,0.0061
1971.0,0.005600000000000001
1970.0,0.004
1969.0,0.0045000000000000005
1968.0,0.0054
1967.0,0.0049
1966.0,0.004
1965.0,0.0061
1964.0,0.004699999999999999
1963.0,0.0042
1962.0,0.0061
1961.0,0.0046
1960.0,0.004
1959.0,0.0055
1958.0,0.0059
1957.0,0.0054
1956.0,0.0039
1955.0,0.0039
1954.0,0.0049
1953.0,0.0054
1952.0,0.0039
1951.0,0.0045000000000000005
1950.0,0.006
1949.0,0.0051
1948.0,0.0042
1947.0,0.0042
1946.0,0.0062
1945.0,0.0061
1944.0,0.0061
1943.0,0.006
1942.0,0.004399999999999999
1941.0,0.0049
1940.0,0.0039
1939.0,0.0039
1938.0,0.0059
1937.0,0.004
1936.0,0.006
1935.0,0.0055
1934.0,0.005
1933.0,0.0055
1932.0,0.004
1931.0,0.0061
1930.0,0.0041
1929.0,0.0052
1928.0,0.0052
1927.0,0.0061
1926.0,0.0051
1925.0,0.0046
1924.0,0.0061
1923.0,0.005600000000000001
1922.0,0.0051
1921.0,0.0041
1920.0,0.0046
1919.0,0.0046
1918.0,0.0051
1917.0,0.004699999999999999
1916.0,0.0042
1915.0,0.004699999999999999
1914.0,0.0042
1913.0,0.0042
1912.0,0.0042
1911.0,0.0046
1910.0,0.005600000000000001
1909.0,0.0041
1908.0,0.0051
1907.0,0.005600000000000001
1906.0,0.004
1905.0,0.004
1904.0,0.006
1903.0,0.004
1902.0,0.0055
1901.0,0.0045000000000000005
1900.0,0.0051
1899.0,0.0061
1898.0,0.005600000000000001
1897.0,0.005600000000000001
1896.0,0.0046
1895.0,0.005600000000000001
1894.0,0.006
1893.0,0.0045000000000000005
1892.0,0.006
1891.0,0.004
1890.0,0.006
1889.0,0.0055
1888.0,0.0055
1887.0,0.004
1886.0,0.0045000000000000005
1885.0,0.005
1884.0,0.005
1883.0,0.004
1882.0,0.006
1881.0,0.005
1880.0,0.006
1879.0,0.0059
1878.0,0.0039
1877.0,0.0059
1876.0,0.0054
1875.0,0.0054
1874.0,0.0049
1873.0,0.0054
1872.0,0.0045000000000000005
1871.0,0.005
1870.0,0.0055
1869.0,0.004
1868.0,0.004
1867.0,0.006
1866.0,0.005
1865.0,0.004
1864.0,0.005
1863.0,0.005
1862.0,0.006
1861.0,0.004
1860.0,0.006
1859.0,0.0055
1858.0,0.0055
1857.0,0.0046
1856.0,0.0061
1855.0,0.0046
1854.0,0.0041
1853.0,0.0051
1852.0,0.0055
1851.0,0.004
1850.0,0.0045000000000000005
1849.0,0.006
1848.0,0.0051
1847.0,0.005600000000000001
1846.0,0.0051
1845.0,0.0051
1844.0,0.0051
1843.0,0.0041
1842.0,0.005600000000000001
1841.0,0.0062
1840.0,0.004699999999999999
1839.0,0.0062
1838.0,0.0062
1837.0,0.0057
1836.0,0.0058
1835.0,0.0063
1834.0,0.0058
1833.0,0.0048000000000000004
1832.0,0.0049
1831.0,0.005900000000000001
1830.0,0.005900000000000001
1829.0,0.0044
1828.0,0.005900000000000001
1827.0,0.0053
1826.0,0.004699999999999999
1825.0,0.004699999999999999
1824.0,0.0062
1823.0,0.0052
1822.0,0.0048000000000000004
1821.0,0.0043
1820.0,0.0054
1819.0,0.0054
1818.0,0.0065
1817.0,0.0055
1816.0,0.0065
1815.0,0.0045
1814.0,0.006
1813.0,0.006
1812.0,0.0065
1811.0,0.0055
1810.0,0.006
1809.0,0.004999999999999999
1808.0,0.0055
1807.0,0.0055
1806.0,0.004999999999999999
1805.0,0.006
1804.0,0.0046
1803.0,0.0060999999999999995
1802.0,0.0046
1801.0,0.0067
1800.0,0.0067
1799.0,0.0052
1798.0,0.0047
1797.0,0.0052
1796.0,0.0057
1795.0,0.0052
1794.0,0.0068
1793.0,0.0068
1792.0,0.0054
1791.0,0.0049
1790.0,0.006
1789.0,0.007
1788.0,0.0071
1787.0,0.0051
1786.0,0.0061
1785.0,0.0062
1784.0,0.0057
1783.0,0.0063
1782.0,0.0068000000000000005
1781.0,0.005900000000000001
1780.0,0.005900000000000001
1779.0,0.0069
1778.0,0.0074
1777.0,0.006999999999999999
1776.0,0.0066
1775.0,0.0076
1774.0,0.006200000000000001
1773.0,0.0077
1772.0,0.0058
1771.0,0.0068
1770.0,0.0069
1769.0,0.008
1768.0,0.007600000000000001
1767.0,0.0072
1766.0,0.006699999999999999
1765.0,0.0078
1764.0,0.0083
1763.0,0.0069
1762.0,0.008400000000000001
1761.0,0.0075
1760.0,0.0086
1759.0,0.0087
1758.0,0.0079
1757.0,0.0075
1756.0,0.0077
1755.0,0.0093
1754.0,0.0084
1753.0,0.009000000000000001
1752.0,0.0087
1751.0,0.0088
1750.0,0.008
1749.0,0.008199999999999999
1748.0,0.0089
1747.0,0.0101
1746.0,0.0093
1745.0,0.0095
1744.0,0.011200000000000002
1743.0,0.0105
1742.0,0.0103
1741.0,0.012
1740.0,0.012299999999999998
1739.0,0.010499999999999999
1738.0,0.0121
1737.0,0.0108
1736.0,0.012400000000000001
1735.0,0.0115
1734.0,0.011200000000000002
1733.0,0.0115
1732.0,0.0123
1731.0,0.012
1730.0,0.014100000000000001
1729.0,0.012299999999999998
1728.0,0.013900000000000001
1727.0,0.0126
1726.0,0.0127
1725.0,0.0143
1724.0,0.0135
1723.0,0.0146
1722.0,0.0133
1721.0,0.0154
1720.0,0.0149
1719.0,0.0155
1718.0,0.0151
1717.0,0.0148
1716.0,0.014499999999999999
1715.0,0.0161
1714.0,0.0142
1713.0,0.0163
1712.0,0.0154
1711.0,0.0154
1710.0,0.0164
1709.0,0.0159
1708.0,0.0164
1707.0,0.014799999999999999
1706.0,0.014799999999999999
1705.0,0.015799999999999998
1704.0,0.0143
1703.0,0.0149
1702.0,0.0163
1701.0,0.0151
1700.0,0.0144
1699.0,0.015300000000000001
1698.0,0.0137
1697.0,0.0147
1696.0,0.0138
1695.0,0.015300000000000001
1694.0,0.0154
1693.0,0.015
1692.0,0.015600000000000001
1691.0,0.015600000000000001
1690.0,0.0157
1689.0,0.0162
1688.0,0.015799999999999998
1687.0,0.0163
1686.0,0.0149
1685.0,0.0155
1684.0,0.0158
1683.0,0.0155
1682.0,0.0161
1681.0,0.015299999999999998
1680.0,0.0165
1679.0,0.0167
1678.0,0.0169
1677.0,0.0181
1676.0,0.0172
1675.0,0.016399999999999998
1674.0,0.0165
1673.0,0.0187
1672.0,0.0188
1671.0,0.016999999999999998
1670.0,0.019100000000000002
1669.0,0.0188
1668.0,0.0195
1667.0,0.0182
1666.0,0.0193
1665.0,0.018
1664.0,0.018099999999999998
1663.0,0.020300000000000002
1662.0,0.0194
1661.0,0.0196
1660.0,0.0192
1659.0,0.0188
1658.0,0.0204
1657.0,0.0194
1656.0,0.021
1655.0,0.0195
1654.0,0.0199
1653.0,0.0204
1652.0,0.0204
1651.0,0.0195
1650.0,0.021
1649.0,0.02
1648.0,0.0204
1647.0,0.020900000000000002
1646.0,0.0188
1645.0,0.018699999999999998
1644.0,0.0191
1643.0,0.0195
1642.0,0.0199
1641.0,0.0199
1640.0,0.0184
1639.0,0.0184
1638.0,0.0204
1637.0,0.0204
1636.0,0.0189
1635.0,0.020300000000000002
1634.0,0.0192
1633.0,0.018199999999999997
1632.0,0.0197
1631.0,0.0202
1630.0,0.0193
1629.0,0.0193
1628.0,0.0199
1627.0,0.02
1626.0,0.0201
1625.0,0.0196
1624.0,0.018699999999999998
1623.0,0.0192
1622.0,0.018699999999999998
1621.0,0.0202
1620.0,0.0206
1619.0,0.0205
1618.0,0.0194
1617.0,0.0183
1616.0,0.0183
1615.0,0.018699999999999998
1614.0,0.0197
1613.0,0.0201
1612.0,0.0185
1611.0,0.0178
1610.0,0.0182
1609.0,0.019700000000000002
1608.0,0.0196
1607.0,0.0196
1606.0,0.019
1605.0,0.0174
1604.0,0.0183
1603.0,0.0176
1602.0,0.018
1601.0,0.0174
1600.0,0.0168
1599.0,0.0172
1598.0,0.0176
1597.0,0.018500000000000003
1596.0,0.016399999999999998
1595.0,0.0173
1594.0,0.0162
1593.0,0.0167
1592.0,0.0166
1591.0,0.0176
1590.0,0.016
1589.0,0.017
1588.0,0.0175
1587.0,0.016
1586.0,0.017
1585.0,0.016
1584.0,0.0175
1583.0,0.017
1582.0,0.0179
1581.0,0.015899999999999997
1580.0,0.016399999999999998
1579.0,0.0169
1578.0,0.0174
1577.0,0.0179
1576.0,0.016399999999999998
1575.0,0.015899999999999997
1574.0,0.0174
1573.0,0.015899999999999997
1572.0,0.015899999999999997
1571.0,0.018000000000000002
1570.0,0.018000000000000002
1569.0,0.0176
1568.0,0.0172
1567.0,0.0178
1566.0,0.0163
1565.0,0.0163
1564.0,0.0184
1563.0,0.016399999999999998
1562.0,0.018000000000000002
1561.0,0.018000000000000002
1560.0,0.0171
1559.0,0.0188
1558.0,0.0173
1557.0,0.0178
1556.0,0.0184
1555.0,0.0184
1554.0,0.0169
1553.0,0.0174
1552.0,0.016999999999999998
1551.0,0.018
1550.0,0.017499999999999998
1549.0,0.019100000000000002
1548.0,0.019200000000000002
1547.0,0.019200000000000002
1546.0,0.0188
1545.0,0.0194
1544.0,0.0196
1543.0,0.0187
1542.0,0.0178
1541.0,0.0198
1540.0,0.0195
1539.0,0.0201
1538.0,0.0202
1537.0,0.0198
1536.0,0.0199
1535.0,0.0185
1534.0,0.0186
1533.0,0.020800000000000003
1532.0,0.019
1531.0,0.0207
1530.0,0.019799999999999998
1529.0,0.02
1528.0,0.0197
1527.0,0.0218
1526.0,0.021
1525.0,0.0208
1524.0,0.0225
1523.0,0.0217
1522.0,0.0229
1521.0,0.0217
1520.0,0.0225
1519.0,0.0217
1518.0,0.0229
1517.0,0.0231
1516.0,0.0244
1515.0,0.022699999999999998
1514.0,0.0244
1513.0,0.0248
1512.0,0.0251
1511.0,0.023799999999999998
1510.0,0.024
1509.0,0.0248
1508.0,0.0253
1507.0,0.0265
1506.0,0.0276
1505.0,0.0276
1504.0,0.0285
1503.0,0.0279
1502.0,0.0298
1501.0,0.0288
1500.0,0.0309
1499.0,0.0305
1498.0,0.0312
1497.0,0.0331
1496.0,0.0341
1495.0,0.034
1494.0,0.0348
1493.0,0.0362
1492.0,0.037200000000000004
1491.0,0.038900000000000004
1490.0,0.0393
1489.0,0.0404
1488.0,0.042
1487.0,0.043
1486.0,0.0455
1485.0,0.0461
1484.0,0.0492
1483.0,0.0509
1482.0,0.0533
1481.0,0.053899999999999997
1480.0,0.0564
1479.0,0.0573
1478.0,0.059699999999999996
1477.0,0.0633
1476.0,0.064
1475.0,0.06760000000000001
1474.0,0.07
1473.0,0.0723
1472.0,0.0752
1471.0,0.0765
1470.0,0.0795
1469.0,0.0803
1468.0,0.082
1467.0,0.0838
1466.0,0.0867
1465.0,0.0892
1464.0,0.0911
1463.0,0.092
1462.0,0.0927
1461.0,0.0942
1460.0,0.0941
1459.0,0.0959
1458.0,0.0969
1457.0,0.0985
1456.0,0.0987
1455.0,0.0979
1454.0,0.0978
1453.0,0.0976
1452.0,0.0989
1451.0,0.0981
1450.0,0.0963
1449.0,0.0976
1448.0,0.0961
1447.0,0.0971
1446.0,0.0967
1445.0,0.0974
1444.0,0.0972
1443.0,0.097
1442.0,0.0975
1441.0,0.0985
1440.0,0.0995
1439.0,0.1001
1438.0,0.1017
1437.0,0.1007
1436.0,0.1032
1435.0,0.1034
1434.0,0.1045
1433.0,0.1056
1432.0,0.1047
1431.0,0.1054
1430.0,0.1066
1429.0,0.1064
1428.0,0.108
1427.0,0.1075
1426.0,0.109
1425.0,0.1096
1424.0,0.1103
1423.0,0.11120000000000001
1422.0,0.1101
1421.0,0.1109
1420.0,0.1128
1419.0,0.1113
1418.0,0.1137
1417.0,0.1125
1416.0,0.1122
1415.0,0.1133
1414.0,0.1143
1413.0,0.1138
1412.0,0.1128
1411.0,0.1137
1410.0,0.1131
1409.0,0.1119
1408.0,0.1131
1407.0,0.1127
1406.0,0.1127
1405.0,0.1118
1404.0,0.11120000000000001
1403.0,0.1106
1402.0,0.1089
1401.0,0.1092
1400.0,0.1084
1399.0,0.1071
1398.0,0.1068
1397.0,0.105
1396.0,0.1047
1395.0,0.1029
1394.0,0.1032
1393.0,0.1035
1392.0,0.102
1391.0,0.1005
1390.0,0.101
1389.0,0.1017
1388.0,0.1015
1387.0,0.1015
1386.0,0.1005
1385.0,0.101
1384.0,0.101
1383.0,0.1005
1382.0,0.1001
1381.0,0.0997
1380.0,0.0998
1379.0,0.0999
1378.0,0.1014
1377.0,0.0998
1376.0,0.1006
1375.0,0.1012
1374.0,0.0988
1373.0,0.1002
1372.0,0.0996
1371.0,0.0989
1370.0,0.0981
1369.0,0.0959
1368.0,0.0956
1367.0,0.0954
1366.0,0.0951
1365.0,0.0934
1364.0,0.0932
1363.0,0.0916
1362.0,0.0926
1361.0,0.0917
1360.0,0.0904
1359.0,0.0906
1358.0,0.0895
1357.0,0.0899
1356.0,0.0904
1355.0,0.0895
1354.0,0.0906
1353.0,0.0902
1352.0,0.0909
1351.0,0.0906
1350.0,0.09230000000000001
1349.0,0.0927
1348.0,0.0925
1347.0,0.0924
1346.0,0.0928
1345.0,0.0932
1344.0,0.0946
1343.0,0.095
1342.0,0.0934
1341.0,0.0959
1340.0,0.0955
1339.0,0.0955
1338.0,0.0956
1337.0,0.0981
1336.0,0.0965
1335.0,0.0969
1334.0,0.0972
1333.0,0.0995
1332.0,0.0992
1331.0,0.0984
1330.0,0.098
1329.0,0.0996
1328.0,0.099
1327.0,0.0989
1326.0,0.0998
1325.0,0.098
1324.0,0.0987
1323.0,0.0989
1322.0,0.0964
1321.0,0.097
1320.0,0.097
1319.0,0.0955
1318.0,0.0949
1317.0,0.0938
1316.0,0.0952
1315.0,0.094
1314.0,0.0938
1313.0,0.0911
1312.0,0.0915
1311.0,0.0909
1310.0,0.0914
1309.0,0.0893
1308.0,0.0893
1307.0,0.0889
1306.0,0.0882
1305.0,0.0875
1304.0,0.0873
1303.0,0.0887
1302.0,0.0891
1301.0,0.088
1300.0,0.0875
1299.0,0.0879
1298.0,0.0874
1297.0,0.0874
1296.0,0.0874
1295.0,0.0868
1294.0,0.0883
1293.0,0.0878
1292.0,0.0873
1291.0,0.0876
1290.0,0.0875
1289.0,0.0863
1288.0,0.0871
1287.0,0.086
1286.0,0.0873
1285.0,0.0862
1284.0,0.08549999999999999
1283.0,0.0852
1282.0,0.0849
1281.0,0.0856
1280.0,0.0843
1279.0,0.08600000000000001
1278.0,0.0837
1277.0,0.0835
1276.0,0.0842
1275.0,0.0839
1274.0,0.0836
1273.0,0.0838
1272.0,0.0835
1271.0,0.0823
1270.0,0.0816
1269.0,0.0833
1268.0,0.0811
1267.0,0.0823
1266.0,0.0814
1265.0,0.081
1264.0,0.0806
1263.0,0.0806
1262.0,0.0802
1261.0,0.0782
1260.0,0.0798
1259.0,0.078
1258.0,0.0782
1257.0,0.0776
1256.0,0.077
1255.0,0.0781
1254.0,0.0778
1253.0,0.0781
1252.0,0.08
1251.0,0.0803
1250.0,0.0807
1249.0,0.0796
1248.0,0.0796
1247.0,0.082
1246.0,0.0825
1245.0,0.082
1244.0,0.0815
1243.0,0.084
1242.0,0.0834
1241.0,0.0838
1240.0,0.0852
1239.0,0.084
1238.0,0.0838
1237.0,0.08600000000000001
1236.0,0.0862
1235.0,0.0843
1234.0,0.0855
1233.0,0.0861
1232.0,0.0846
1231.0,0.0856
1230.0,0.0846
1229.0,0.0855
1228.0,0.0845
1227.0,0.0864
1226.0,0.0844
1225.0,0.0863
1224.0,0.0863
1223.0,0.0858
1222.0,0.0852
1221.0,0.0851
1220.0,0.0846
1219.0,0.08600000000000001
1218.0,0.0844
1217.0,0.0849
1216.0,0.0855
1215.0,0.084
1214.0,0.0855
1213.0,0.0855
1212.0,0.0854
1211.0,0.0849
1210.0,0.0848
1209.0,0.0838
1208.0,0.0848
1207.0,0.0856
1206.0,0.0838
1205.0,0.0845
1204.0,0.0835
1203.0,0.0834
1202.0,0.0828
1201.0,0.0805
1200.0,0.0805
1199.0,0.0784
1198.0,0.0777
1197.0,0.0779
1196.0,0.0764
1195.0,0.073
1194.0,0.0729
1193.0,0.0718
1192.0,0.07
1191.0,0.0677
1190.0,0.0659
1189.0,0.0626
1188.0,0.0628
1187.0,0.0601
1186.0,0.0594
1185.0,0.0572
1184.0,0.056100000000000004
1183.0,0.0545
1182.0,0.0526
1181.0,0.0497
1180.0,0.0484
1179.0,0.0482
1178.0,0.0475
1177.0,0.0468
1176.0,0.0452
1175.0,0.0438
1174.0,0.0434
1173.0,0.0422
1172.0,0.0415
1171.0,0.0419
1170.0,0.0398
1169.0,0.0393
1168.0,0.0388
1167.0,0.037899999999999996
1166.0,0.0386
1165.0,0.0378
1164.0,0.0381
1163.0,0.038400000000000004
1162.0,0.0383
1161.0,0.0387
1160.0,0.036699999999999997
1159.0,0.0373
1158.0,0.0376
1157.0,0.0385
1156.0,0.0395
1155.0,0.0388
1154.0,0.0408
1153.0,0.0415
1152.0,0.0439
1151.0,0.0446
1150.0,0.0464
1149.0,0.0499
1148.0,0.049999999999999996
1147.0,0.0525
1146.0,0.0551
1145.0,0.0576
1144.0,0.0595
1143.0,0.0599
1142.0,0.0632
1141.0,0.0655
1140.0,0.0653
1139.0,0.069
1138.0,0.0702
1137.0,0.0719
1136.0,0.0731
1135.0,0.0753
1134.0,0.0766
1133.0,0.0796
1132.0,0.0814
1131.0,0.084
1130.0,0.0871
1129.0,0.0906
1128.0,0.0937
1127.0,0.0998
1126.0,0.10490000000000001
1125.0,0.1106
1124.0,0.1157
1123.0,0.1212
1122.0,0.1295
1121.0,0.1356
1120.0,0.1443
1119.0,0.1494
1118.0,0.1572
1117.0,0.1648
1116.0,0.1709
1115.0,0.1743
1114.0,0.1795
1113.0,0.1827
1112.0,0.1856
1111.0,0.1885
1110.0,0.1884
1109.0,0.1886
1108.0,0.1894
1107.0,0.1864
1106.0,0.1853
1105.0,0.1834
1104.0,0.1813
1103.0,0.1769
1102.0,0.1746
1101.0,0.17099999999999999
1100.0,0.1697
1099.0,0.1672
1098.0,0.1669
1097.0,0.1649
1096.0,0.1638
1095.0,0.1629
1094.0,0.1617
1093.0,0.1608
1092.0,0.1608
1091.0,0.1625
1090.0,0.1609
1089.0,0.1628
1088.0,0.1629
1087.0,0.164
1086.0,0.1647
1085.0,0.165
1084.0,0.1664
1083.0,0.1668
1082.0,0.1676
1081.0,0.1676
1080.0,0.1696
1079.0,0.1706
1078.0,0.1727
1077.0,0.1728
1076.0,0.1741
1075.0,0.1755
1074.0,0.1775
1073.0,0.1789
1072.0,0.1801
1071.0,0.183
1070.0,0.1862
1069.0,0.1885
1068.0,0.1943
1067.0,0.1966
1066.0,0.2034
1065.0,0.2087
1064.0,0.2137
1063.0,0.2208
1062.0,0.2274
1061.0,0.2361
1060.0,0.2427
1059.0,0.2533
1058.0,0.2624
1057.0,0.2724
1056.0,0.284
1055.0,0.2964
1054.0,0.309
1053.0,0.3215
1052.0,0.3363
1051.0,0.3509
1050.0,0.3663
1049.0,0.3819
1048.0,0.3957
1047.0,0.4101
1046.0,0.4264
1045.0,0.4391
1044.0,0.4524
1043.0,0.4666
1042.0,0.4783
1041.0,0.4913
1040.0,0.4999
1039.0,0.5105999999999999
1038.0,0.5180999999999999
1037.0,0.523
1036.0,0.5286000000000001
1035.0,0.5322
1034.0,0.5328
1033.0,0.5318
1032.0,0.5317
1031.0,0.5269999999999999
1030.0,0.5207999999999999
1029.0,0.5113
1028.0,0.5029999999999999
1027.0,0.491
1026.0,0.4765
1025.0,0.4615
1024.0,0.4441
1023.0,0.4252
1022.0,0.4049
1021.0,0.3858
1020.0,0.3654
1019.0,0.3427
1018.0,0.3223
1017.0,0.3032
1016.0,0.2842
1015.0,0.2649
1014.0,0.2486
1013.0,0.2353
1012.0,0.2235
1011.0,0.2132
1010.0,0.204
1009.0,0.1974
1008.0,0.1928
1007.0,0.1921
1006.0,0.192
1005.0,0.1923
1004.0,0.1935
1003.0,0.196
1002.0,0.2018
1001.0,0.2041
1000.0,0.2087
999.0,0.2138
998.0,0.2193
997.0,0.2224
996.0,0.2267
995.0,0.2288
994.0,0.2314
993.0,0.2336
992.0,0.2341
991.0,0.2326
990.0,0.2282
989.0,0.2235
988.0,0.2197
987.0,0.2121
986.0,0.2061
985.0,0.2006
984.0,0.194
983.0,0.1889
982.0,0.1841
981.0,0.1797
980.0,0.1756
979.0,0.1729
978.0,0.17200000000000001
977.0,0.1687
976.0,0.1657
975.0,0.1628
974.0,0.1613
973.0,0.1563
972.0,0.1526
971.0,0.1452
970.0,0.1412
969.0,0.1337
968.0,0.127
967.0,0.1211
966.0,0.1137
965.0,0.1076
964.0,0.1009
963.0,0.09570000000000001
962.0,0.0906
961.0,0.0842
960.0,0.0804
959.0,0.0774
958.0,0.075
957.0,0.0747
956.0,0.0731
955.0,0.0735
954.0,0.0729
953.0,0.0737
952.0,0.0729
951.0,0.0749
950.0,0.0748
949.0,0.0758
948.0,0.0762
947.0,0.0791
946.0,0.0783
945.0,0.0785
944.0,0.0809
943.0,0.0807
942.0,0.0841
941.0,0.0852
940.0,0.0906
939.0,0.0934
938.0,0.099
937.0,0.1058
936.0,0.1113
935.0,0.1187
934.0,0.1243
933.0,0.1325
932.0,0.1387
931.0,0.1457
930.0,0.1527
929.0,0.1588
928.0,0.1649
927.0,0.1687
926.0,0.1731
925.0,0.1758
924.0,0.1786
923.0,0.1794
922.0,0.1807
921.0,0.1794
920.0,0.1784
919.0,0.1769
918.0,0.1728
917.0,0.1686
916.0,0.1659
915.0,0.1597
914.0,0.1546
913.0,0.1503
912.0,0.1447
911.0,0.1375
910.0,0.1317
909.0,0.1265
908.0,0.1204
907.0,0.1168
906.0,0.1094
905.0,0.1053
904.0,0.1015
903.0,0.0971
902.0,0.09230000000000001
901.0,0.0888
900.0,0.085
899.0,0.0809
898.0,0.0762
897.0,0.0739
896.0,0.073
895.0,0.07050000000000001
894.0,0.0679
893.0,0.0683
892.0,0.067
891.0,0.0671
890.0,0.066
889.0,0.0669
888.0,0.0662
887.0,0.0674
886.0,0.0691
885.0,0.0731
884.0,0.0748
883.0,0.0771
882.0,0.0791
881.0,0.0822
880.0,0.0839
879.0,0.0872
878.0,0.0904
877.0,0.0936
876.0,0.0954
875.0,0.0973
874.0,0.1024
873.0,0.10490000000000001
872.0,0.108
871.0,0.1095
870.0,0.1128
869.0,0.1153
868.0,0.1186
867.0,0.1194
866.0,0.122
865.0,0.1227
864.0,0.1247
863.0,0.125
862.0,0.1242
861.0,0.1271
860.0,0.1271
859.0,0.1288
858.0,0.1295
857.0,0.1315
856.0,0.1332
855.0,0.1335
854.0,0.1366
853.0,0.1383
852.0,0.1384
851.0,0.1404
850.0,0.1428
849.0,0.1446
848.0,0.1454
847.0,0.1461
846.0,0.1481
845.0,0.1471
844.0,0.15
843.0,0.1503
842.0,0.1492
841.0,0.1513
840.0,0.1506
839.0,0.1489
838.0,0.1445
837.0,0.1421
836.0,0.1368
835.0,0.1319
834.0,0.1243
833.0,0.1189
832.0,0.115
831.0,0.1118
830.0,0.1069
829.0,0.1049
828.0,0.1043
827.0,0.1028
826.0,0.1017
825.0,0.1011
824.0,0.1007
823.0,0.1031
822.0,0.1025
821.0,0.103
820.0,0.1044
819.0,0.1026
818.0,0.1041
817.0,0.1045
816.0,0.1023
815.0,0.104
814.0,0.1018
813.0,0.1036
812.0,0.1037
811.0,0.1033
810.0,0.1025
809.0,0.1029
808.0,0.104
807.0,0.1048
806.0,0.10439999999999999
805.0,0.1049
804.0,0.1053
803.0,0.107
802.0,0.1075
801.0,0.1074
800.0,0.1053
799.0,0.1052
798.0,0.1055
797.0,0.1054
796.0,0.1051
795.0,0.1074
794.0,0.1073
793.0,0.1077
792.0,0.1077
791.0,0.1088
790.0,0.1101
789.0,0.1089
788.0,0.1097
787.0,0.1126
786.0,0.1124
785.0,0.1142
784.0,0.1151
783.0,0.114
782.0,0.1163
781.0,0.1171
780.0,0.1169
779.0,0.1175
778.0,0.1197
777.0,0.1194
776.0,0.1197
775.0,0.1205
774.0,0.1211
773.0,0.1228
772.0,0.1231
771.0,0.1249
770.0,0.1253
769.0,0.1262
768.0,0.1262
767.0,0.1288
766.0,0.1292
765.0,0.1292
764.0,0.1306
763.0,0.132
762.0,0.1334
761.0,0.1334
760.0,0.135
759.0,0.1361
758.0,0.1371
757.0,0.1376
756.0,0.1381
755.0,0.1406
754.0,0.14150000000000001
753.0,0.142
752.0,0.1429
751.0,0.1434
750.0,0.1444
749.0,0.1459
748.0,0.1455
747.0,0.1475
746.0,0.1474
745.0,0.1499
744.0,0.1511
743.0,0.1507
742.0,0.1526
741.0,0.15309999999999999
740.0,0.1556
739.0,0.1567
738.0,0.1559
737.0,0.1582
736.0,0.1596
735.0,0.1609
734.0,0.1632
733.0,0.1633
732.0,0.165
731.0,0.1666
730.0,0.1676
729.0,0.1677
728.0,0.1694
727.0,0.1701
726.0,0.1712
725.0,0.1723
724.0,0.174
723.0,0.1749
722.0,0.1772
721.0,0.1776
720.0,0.18
719.0,0.1803
718.0,0.1825
717.0,0.1838
716.0,0.1842
715.0,0.1862
714.0,0.186
713.0,0.1888
712.0,0.1907
711.0,0.1905
710.0,0.1927
709.0,0.1925
708.0,0.1953
707.0,0.195
706.0,0.1975
705.0,0.1982
704.0,0.1992
703.0,0.2016
702.0,0.2023
701.0,0.2031
700.0,0.2039
699.0,0.2067
698.0,0.207
697.0,0.209
696.0,0.2117
695.0,0.2126
694.0,0.2141
693.0,0.2176
692.0,0.2181
691.0,0.2216
690.0,0.222
689.0,0.2237
688.0,0.2277
687.0,0.2304
686.0,0.2321
685.0,0.2351
684.0,0.2389
683.0,0.2415
682.0,0.2452
681.0,0.2465
680.0,0.2494
679.0,0.2523
678.0,0.2569
677.0,0.2595
676.0,0.2614
675.0,0.2624
674.0,0.264
673.0,0.2664
672.0,0.2679
671.0,0.2684
670.0,0.2665
669.0,0.2676
668.0,0.2708
667.0,0.2722
666.0,0.2706
665.0,0.2722
664.0,0.2721
663.0,0.2726
662.0,0.2721
661.0,0.2734
660.0,0.276
659.0,0.2766
658.0,0.276
657.0,0.2768
656.0,0.2775
655.0,0.2793
654.0,0.2789
653.0,0.2789
652.0,0.2797
651.0,0.2797
650.0,0.2799
