Created as New Dataset,Sample 004 By CHEM 370 Date Monday, March 02 2020
cm-1,A
4000.0,0.0010999999999999998
3999.0,0.0006
3998.0,-0.0004000000000000001
3997.0,0.0015999999999999999
3996.0,0.0010999999999999998
3995.0,0.0010999999999999998
3994.0,-0.0004000000000000001
3993.0,-0.0004000000000000001
3992.0,-0.0005
3991.0,0.0005
3990.0,0.0015
3989.0,-0.0005
3988.0,-0.0004000000000000001
3987.0,0.0006
3986.0,-0.0004000000000000001
3985.0,0.0015999999999999999
3984.0,0.0015
3983.0,0.0005
3982.0,0.001
3981.0,0.0010999999999999998
3980.0,-0.0004000000000000001
3979.0,9.999999999999994e-5
3978.0,0.0015999999999999999
3977.0,9.999999999999994e-5
3976.0,0.0010999999999999998
3975.0,0.0006
3974.0,0.0010999999999999998
3973.0,0.0006
3972.0,-0.0004000000000000001
3971.0,0.0010999999999999998
3970.0,9.999999999999994e-5
3969.0,0.001
3968.0,0.0005
3967.0,-0.0005
3966.0,0.0
3965.0,0.0004
3964.0,0.0014
3963.0,0.0004
3962.0,0.0005
3961.0,0.0
3960.0,0.001
3959.0,0.001
3958.0,0.0015
3957.0,0.0005
3956.0,9.999999999999994e-5
3955.0,0.0006
3954.0,0.0010999999999999998
3953.0,0.0005
3952.0,0.0015
3951.0,-9.999999999999999e-5
3950.0,-9.999999999999999e-5
3949.0,-0.0006000000000000001
3948.0,0.0004
3947.0,0.0004
3946.0,-0.0006000000000000001
3945.0,-0.0006000000000000001
3944.0,0.0014
3943.0,-0.0007000000000000001
3942.0,-0.0007000000000000001
3941.0,-0.00020000000000000004
3940.0,0.0013
3939.0,0.0004
3938.0,0.0004
3937.0,-9.999999999999999e-5
3936.0,-0.0006000000000000001
3935.0,-0.0006000000000000001
3934.0,-9.999999999999999e-5
3933.0,0.0014
3932.0,-0.0006000000000000001
3931.0,0.0003
3930.0,0.0003
3929.0,0.0007999999999999999
3928.0,0.0007999999999999999
3927.0,0.0003
3926.0,0.0003
3925.0,-0.0007000000000000001
3924.0,0.0013
3923.0,-0.0007000000000000001
3922.0,0.0013
3921.0,0.0007999999999999999
3920.0,-0.00020000000000000004
3919.0,0.0013
3918.0,0.0003
3917.0,0.0007999999999999999
3916.0,0.0007999999999999999
3915.0,0.0007999999999999999
3914.0,-0.00020000000000000004
3913.0,-0.00020000000000000004
3912.0,0.0003
3911.0,0.0013
3910.0,0.0002
3909.0,0.0007999999999999999
3908.0,0.0003
3907.0,-0.00020000000000000004
3906.0,-0.0006000000000000001
3905.0,-0.0006000000000000001
3904.0,0.0013
3903.0,0.0003
3902.0,-0.00020000000000000004
3901.0,0.0013
3900.0,-0.00020000000000000004
3899.0,0.0007999999999999999
3898.0,0.0003
3897.0,0.0013
3896.0,0.0007999999999999999
3895.0,0.0003
3894.0,0.0013
3893.0,-0.0008
3892.0,-0.00030000000000000003
3891.0,0.0002
3890.0,0.0012000000000000001
3889.0,0.0002
3888.0,-0.00030000000000000003
3887.0,-0.0007000000000000001
3886.0,0.0013
3885.0,0.0013
3884.0,0.0013
3883.0,0.0003
3882.0,0.0013
3881.0,0.0003
3880.0,0.0003
3879.0,-0.0008
3878.0,0.0007
3877.0,0.0002
3876.0,-0.00030000000000000003
3875.0,0.0007
3874.0,0.0002
3873.0,-0.0008
3872.0,-0.0008
3871.0,0.0012000000000000001
3870.0,0.0003
3869.0,0.0003
3868.0,-0.0007000000000000001
3867.0,-0.00020000000000000004
3866.0,-0.00020000000000000004
3865.0,0.0013
3864.0,0.0003
3863.0,0.0013
3862.0,-0.00020000000000000004
3861.0,-0.00020000000000000004
3860.0,0.0007999999999999999
3859.0,-0.00030000000000000003
3858.0,-0.0008
3857.0,0.0002
3856.0,0.0002
3855.0,-0.00030000000000000003
3854.0,-0.0008
3853.0,0.0012000000000000001
3852.0,0.0002
3851.0,0.0012000000000000001
3850.0,0.0002
3849.0,-0.00030000000000000003
3848.0,-0.0008
3847.0,-0.0008
3846.0,-0.0008
3845.0,-0.0004
3844.0,-0.0004
3843.0,0.0001
3842.0,-0.0009
3841.0,0.0001
3840.0,-0.0004
3839.0,-0.0008
3838.0,-0.00030000000000000003
3837.0,0.0007
3836.0,0.0007
3835.0,0.0002
3834.0,0.0012000000000000001
3833.0,0.0007999999999999999
3832.0,0.0007999999999999999
3831.0,0.0013
3830.0,0.0003
3829.0,0.0003
3828.0,0.0002
3827.0,0.0002
3826.0,-0.00030000000000000003
3825.0,0.0007
3824.0,0.0002
3823.0,0.0002
3822.0,-0.00020000000000000004
3821.0,0.0007999999999999999
3820.0,-0.0008
3819.0,-0.0008
3818.0,0.0006000000000000001
3817.0,0.0011
3816.0,0.0011
3815.0,0.0012000000000000001
3814.0,0.0007
3813.0,0.0007999999999999999
3812.0,0.0007999999999999999
3811.0,-0.00020000000000000004
3810.0,0.0013
3809.0,0.0007
3808.0,-0.00030000000000000003
3807.0,-0.00030000000000000003
3806.0,0.0012000000000000001
3805.0,0.0007
3804.0,0.0012000000000000001
3803.0,-0.0008
3802.0,0.0012000000000000001
3801.0,-0.0007000000000000001
3800.0,-0.00020000000000000004
3799.0,-0.0007000000000000001
3798.0,0.0007
3797.0,0.0007
3796.0,0.0002
3795.0,-0.00020000000000000004
3794.0,0.0003
3793.0,-0.0007000000000000001
3792.0,-0.0007000000000000001
3791.0,0.0007999999999999999
3790.0,0.0013
3789.0,-0.00020000000000000004
3788.0,0.0003
3787.0,-0.00020000000000000004
3786.0,-0.00020000000000000004
3785.0,0.0007999999999999999
3784.0,0.0002
3783.0,0.0002
3782.0,0.0007
3781.0,-0.00020000000000000004
3780.0,-0.0007000000000000001
3779.0,0.0007999999999999999
3778.0,-0.00020000000000000004
3777.0,-0.00020000000000000004
3776.0,-0.00020000000000000004
3775.0,0.0002
3774.0,0.0007
3773.0,0.0007999999999999999
3772.0,-0.00020000000000000004
3771.0,0.0003
3770.0,0.0002
3769.0,0.0007
3768.0,0.0002
3767.0,0.0012000000000000001
3766.0,0.0007
3765.0,-0.00030000000000000003
3764.0,0.0002
3763.0,0.0002
3762.0,0.0007
3761.0,0.0007
3760.0,-0.0007000000000000001
3759.0,0.0003
3758.0,-0.0007000000000000001
3757.0,-0.0007000000000000001
3756.0,0.0013
3755.0,0.0013
3754.0,-0.0007000000000000001
3753.0,0.0002
3752.0,0.0012000000000000001
3751.0,0.0002
3750.0,0.0002
3749.0,-0.00030000000000000003
3748.0,0.0007
3747.0,0.0007999999999999999
3746.0,-9.999999999999999e-5
3745.0,0.0004
3744.0,-9.999999999999999e-5
3743.0,0.0009
3742.0,0.0007999999999999999
3741.0,-0.0007000000000000001
3740.0,-0.0007000000000000001
3739.0,0.0007999999999999999
3738.0,0.0007999999999999999
3737.0,0.0003
3736.0,-0.0006000000000000001
3735.0,0.0004
3734.0,-9.999999999999999e-5
3733.0,0.0004
3732.0,0.0009
3731.0,0.0004
3730.0,-0.0006000000000000001
3729.0,-0.0007000000000000001
3728.0,-0.0007000000000000001
3727.0,-0.00020000000000000004
3726.0,0.0007999999999999999
3725.0,0.0013
3724.0,0.0013
3723.0,-0.0007000000000000001
3722.0,0.0013
3721.0,0.0003
3720.0,0.0007999999999999999
3719.0,-0.0006000000000000001
3718.0,-0.0006000000000000001
3717.0,0.0014
3716.0,-9.999999999999999e-5
3715.0,0.0004
3714.0,-0.0006000000000000001
3713.0,-9.999999999999999e-5
3712.0,0.0009
3711.0,0.0004
3710.0,0.0004
3709.0,0.0
3708.0,0.0015
3707.0,0.0015
3706.0,0.0009
3705.0,0.0004
3704.0,0.0004
3703.0,0.0009
3702.0,0.0014
3701.0,0.0004
3700.0,0.0
3699.0,0.0
3698.0,0.0015
3697.0,0.0005
3696.0,-0.0004000000000000001
3695.0,0.0015999999999999999
3694.0,0.0007
3693.0,0.00019999999999999998
3692.0,0.0010999999999999998
3691.0,9.999999999999994e-5
3690.0,0.0015999999999999999
3689.0,0.0006
3688.0,9.999999999999994e-5
3687.0,0.0007
3686.0,0.0012000000000000001
3685.0,-0.00019999999999999998
3684.0,0.00030000000000000003
3683.0,-0.00010000000000000005
3682.0,0.0009
3681.0,0.001
3680.0,0.002
3679.0,0.001
3678.0,0.001
3677.0,0.0011
3676.0,0.0006000000000000001
3675.0,0.0
3674.0,0.0015
3673.0,0.0015
3672.0,0.00010000000000000005
3671.0,0.0016
3670.0,0.0006000000000000001
3669.0,0.00010000000000000005
3668.0,0.0016
3667.0,0.002
3666.0,0.0016
3665.0,0.00010000000000000005
3664.0,0.00019999999999999987
3663.0,0.0018
3662.0,0.0007999999999999999
3661.0,0.0023
3660.0,0.0009
3659.0,0.0009
3658.0,0.0014
3657.0,0.0005
3656.0,0.0021000000000000003
3655.0,0.0016
3654.0,0.0011
3653.0,0.0026
3652.0,0.0006000000000000001
3651.0,0.0016
3650.0,0.0017
3649.0,0.0012
3648.0,0.0023
3647.0,0.0024000000000000002
3646.0,0.0024000000000000002
3645.0,0.003
3644.0,0.001
3643.0,0.003
3642.0,0.0015
3641.0,0.001
3640.0,0.0025
3639.0,0.0010999999999999998
3638.0,0.0012000000000000001
3637.0,0.0033
3636.0,0.0018999999999999998
3635.0,0.0034
3634.0,0.003
3633.0,0.002
3632.0,0.0021
3631.0,0.0036
3630.0,0.0036
3629.0,0.0017000000000000001
3628.0,0.0018
3627.0,0.0028
3626.0,0.0029
3625.0,0.0024
3624.0,0.0025
3623.0,0.0026
3622.0,0.0037
3621.0,0.0043
3620.0,0.0023
3619.0,0.0024
3618.0,0.0034
3617.0,0.0045000000000000005
3616.0,0.0026
3615.0,0.004200000000000001
3614.0,0.0043
3613.0,0.0034
3612.0,0.005
3611.0,0.0046
3610.0,0.0031000000000000003
3609.0,0.0052
3608.0,0.0053
3607.0,0.0054
3606.0,0.0056
3605.0,0.0052
3604.0,0.0059
3603.0,0.0055
3602.0,0.0041
3601.0,0.0062
3600.0,0.0048000000000000004
3599.0,0.0043
3598.0,0.0049
3597.0,0.006
3596.0,0.0057
3595.0,0.0048
3594.0,0.006
3593.0,0.005600000000000001
3592.0,0.0053
3591.0,0.0074
3590.0,0.005900000000000001
3589.0,0.006
3588.0,0.0071
3587.0,0.0072
3586.0,0.0063999999999999994
3585.0,0.0071
3584.0,0.0072
3583.0,0.0074
3582.0,0.0076
3581.0,0.0068
3580.0,0.006900000000000001
3579.0,0.007
3578.0,0.0086
3577.0,0.0077
3576.0,0.007899999999999999
3575.0,0.009500000000000001
3574.0,0.007699999999999999
3573.0,0.0098
3572.0,0.008499999999999999
3571.0,0.0092
3570.0,0.008799999999999999
3569.0,0.0094
3568.0,0.009
3567.0,0.010599999999999998
3566.0,0.008799999999999999
3565.0,0.0109
3564.0,0.0101
3563.0,0.0098
3562.0,0.01
3561.0,0.0097
3560.0,0.0104
3559.0,0.0111
3558.0,0.0103
3557.0,0.0125
3556.0,0.0121
3555.0,0.0118
3554.0,0.0115
3553.0,0.0122
3552.0,0.011899999999999999
3551.0,0.0126
3550.0,0.011699999999999999
3549.0,0.0139
3548.0,0.014100000000000001
3547.0,0.0143
3546.0,0.014499999999999999
3545.0,0.0132
3544.0,0.0144
3543.0,0.0145
3542.0,0.0132
3541.0,0.0154
3540.0,0.0146
3539.0,0.0144
3538.0,0.0151
3537.0,0.014799999999999999
3536.0,0.015
3535.0,0.014599999999999998
3534.0,0.0159
3533.0,0.0166
3532.0,0.0168
3531.0,0.0155
3530.0,0.0162
3529.0,0.016399999999999998
3528.0,0.0171
3527.0,0.0183
3526.0,0.017
3525.0,0.0168
3524.0,0.018
3523.0,0.0172
3522.0,0.0184
3521.0,0.017599999999999998
3520.0,0.0178
3519.0,0.02
3518.0,0.0198
3517.0,0.019
3516.0,0.018699999999999998
3515.0,0.020900000000000002
3514.0,0.0211
3513.0,0.0203
3512.0,0.0195
3511.0,0.0197
3510.0,0.0205
3509.0,0.0218
3508.0,0.0225
3507.0,0.0227
3506.0,0.0219
3505.0,0.023100000000000002
3504.0,0.0213
3503.0,0.0235
3502.0,0.0227
3501.0,0.0219
3500.0,0.0236
3499.0,0.0228
3498.0,0.023
3497.0,0.0237
3496.0,0.024900000000000002
3495.0,0.0251
3494.0,0.0243
3493.0,0.024
3492.0,0.0257
3491.0,0.025
3490.0,0.0262
3489.0,0.0243
3488.0,0.0254
3487.0,0.0261
3486.0,0.0248
3485.0,0.0265
3484.0,0.0252
3483.0,0.0254
3482.0,0.0266
3481.0,0.0258
3480.0,0.026
3479.0,0.026699999999999998
3478.0,0.0269
3477.0,0.027
3476.0,0.0272
3475.0,0.0279
3474.0,0.0281
3473.0,0.027299999999999998
3472.0,0.0279
3471.0,0.0291
3470.0,0.0292
3469.0,0.0288
3468.0,0.0285
3467.0,0.0287
3466.0,0.028399999999999998
3465.0,0.030600000000000002
3464.0,0.0308
3463.0,0.03
3462.0,0.0297
3461.0,0.0308
3460.0,0.0299
3459.0,0.0301
3458.0,0.0297
3457.0,0.0309
3456.0,0.0315
3455.0,0.0312
3454.0,0.0318
3453.0,0.0324
3452.0,0.0315
3451.0,0.0312
3450.0,0.0318
3449.0,0.0325
3448.0,0.0331
3447.0,0.0313
3446.0,0.0319
3445.0,0.0335
3444.0,0.0336
3443.0,0.0317
3442.0,0.0334
3441.0,0.033
3440.0,0.0332
3439.0,0.034300000000000004
3438.0,0.0335
3437.0,0.0332
3436.0,0.0338
3435.0,0.0339
3434.0,0.034
3433.0,0.0346
3432.0,0.0347
3431.0,0.0348
3430.0,0.0343
3429.0,0.0339
3428.0,0.0354
3427.0,0.034
3426.0,0.0356
3425.0,0.0347
3424.0,0.0358
3423.0,0.0359
3422.0,0.036000000000000004
3421.0,0.034
3420.0,0.0346
3419.0,0.0347
3418.0,0.0363
3417.0,0.0349
3416.0,0.036
3415.0,0.0366
3414.0,0.0367
3413.0,0.0347
3412.0,0.0348
3411.0,0.0358
3410.0,0.0348
3409.0,0.0359
3408.0,0.037
3407.0,0.036
3406.0,0.0366
3405.0,0.0351
3404.0,0.0357
3403.0,0.0363
3402.0,0.0354
3401.0,0.0359
3400.0,0.0374
3399.0,0.0369
3398.0,0.0364
3397.0,0.0368
3396.0,0.0373
3395.0,0.0368
3394.0,0.0354
3393.0,0.0359
3392.0,0.0369
3391.0,0.0363
3390.0,0.0358
3389.0,0.0357
3388.0,0.0367
3387.0,0.0352
3386.0,0.0357
3385.0,0.0352
3384.0,0.0361
3383.0,0.0366
3382.0,0.0366
3381.0,0.0366
3380.0,0.0351
3379.0,0.0361
3378.0,0.0356
3377.0,0.034999999999999996
3376.0,0.037
3375.0,0.037
3374.0,0.034999999999999996
3373.0,0.0355
3372.0,0.034999999999999996
3371.0,0.037
3370.0,0.0364
3369.0,0.0369
3368.0,0.0363
3367.0,0.0347
3366.0,0.0346
3365.0,0.0361
3364.0,0.034499999999999996
3363.0,0.0359
3362.0,0.0358
3361.0,0.0362
3360.0,0.0346
3359.0,0.0341
3358.0,0.034
3357.0,0.0344
3356.0,0.0354
3355.0,0.0358
3354.0,0.0357
3353.0,0.0346
3352.0,0.0345
3351.0,0.0339
3350.0,0.033299999999999996
3349.0,0.0337
3348.0,0.0346
3347.0,0.0351
3346.0,0.0335
3345.0,0.034
3344.0,0.0334
3343.0,0.0348
3342.0,0.0327
3341.0,0.033
3340.0,0.0344
3339.0,0.0323
3338.0,0.0332
3337.0,0.0336
3336.0,0.034
3335.0,0.0334
3334.0,0.0333
3333.0,0.0321
3332.0,0.0325
3331.0,0.0314
3330.0,0.0312
3329.0,0.031599999999999996
3328.0,0.0325
3327.0,0.0308
3326.0,0.0317
3325.0,0.032600000000000004
3324.0,0.032
3323.0,0.0324
3322.0,0.0303
3321.0,0.0321
3320.0,0.0315
3319.0,0.0319
3318.0,0.031200000000000002
3317.0,0.0306
3316.0,0.0305
3315.0,0.0299
3314.0,0.0297
3313.0,0.029599999999999998
3312.0,0.03
3311.0,0.0309
3310.0,0.0298
3309.0,0.0286
3308.0,0.03
3307.0,0.0298
3306.0,0.0291
3305.0,0.0286
3304.0,0.030000000000000002
3303.0,0.0285
3302.0,0.028399999999999998
3301.0,0.0278
3300.0,0.0281
3299.0,0.029400000000000003
3298.0,0.0283
3297.0,0.0271
3296.0,0.0279
3295.0,0.0287
3294.0,0.0286
3293.0,0.0279
3292.0,0.027800000000000002
3291.0,0.0271
3290.0,0.026
3289.0,0.0264
3288.0,0.0273
3287.0,0.0262
3286.0,0.026
3285.0,0.0254
3284.0,0.0267
3283.0,0.026600000000000002
3282.0,0.0254
3281.0,0.0268
3280.0,0.0246
3279.0,0.0265
3278.0,0.0263
3277.0,0.0262
3276.0,0.025500000000000002
3275.0,0.0249
3274.0,0.0257
3273.0,0.0246
3272.0,0.025
3271.0,0.0234
3270.0,0.023299999999999998
3269.0,0.0247
3268.0,0.0231
3267.0,0.024900000000000002
3266.0,0.024800000000000003
3265.0,0.0241
3264.0,0.0239
3263.0,0.0237
3262.0,0.022
3261.0,0.0229
3260.0,0.023200000000000002
3259.0,0.0226
3258.0,0.0235
3257.0,0.0233
3256.0,0.0217
3255.0,0.0225
3254.0,0.0224
3253.0,0.0222
3252.0,0.0221
3251.0,0.0225
3250.0,0.0218
3249.0,0.0211
3248.0,0.0219
3247.0,0.0202
3246.0,0.021500000000000002
3245.0,0.0199
3244.0,0.0208
3243.0,0.0212
3242.0,0.0205
3241.0,0.020900000000000002
3240.0,0.0202
3239.0,0.0196
3238.0,0.0199
3237.0,0.018199999999999997
3236.0,0.019
3235.0,0.0188
3234.0,0.019200000000000002
3233.0,0.0191
3232.0,0.0174
3231.0,0.0172
3230.0,0.019100000000000002
3229.0,0.0179
3228.0,0.0172
3227.0,0.018600000000000002
3226.0,0.016399999999999998
3225.0,0.0168
3224.0,0.0166
3223.0,0.0165
3222.0,0.015799999999999998
3221.0,0.0161
3220.0,0.0164
3219.0,0.0162
3218.0,0.0155
3217.0,0.016900000000000002
3216.0,0.016800000000000002
3215.0,0.0148
3214.0,0.015099999999999999
3213.0,0.0149
3212.0,0.0143
3211.0,0.0161
3210.0,0.014499999999999999
3209.0,0.0158
3208.0,0.0151
3207.0,0.0155
3206.0,0.0148
3205.0,0.0142
3204.0,0.013000000000000001
3203.0,0.0149
3202.0,0.014700000000000001
3201.0,0.013
3200.0,0.0144
3199.0,0.012299999999999998
3198.0,0.0132
3197.0,0.0131
3196.0,0.0134
3195.0,0.011699999999999999
3194.0,0.012
3193.0,0.0128
3192.0,0.0121
3191.0,0.013000000000000001
3190.0,0.0114
3189.0,0.0122
3188.0,0.0122
3187.0,0.0116
3186.0,0.0109
3185.0,0.0118
3184.0,0.012199999999999999
3183.0,0.0111
3182.0,0.0109
3181.0,0.0108
3180.0,0.011699999999999999
3179.0,0.011000000000000001
3178.0,0.0114
3177.0,0.0093
3176.0,0.0092
3175.0,0.009000000000000001
3174.0,0.008900000000000002
3173.0,0.008799999999999999
3172.0,0.0092
3171.0,0.0096
3170.0,0.0085
3169.0,0.0099
3168.0,0.0098
3167.0,0.008199999999999999
3166.0,0.009600000000000001
3165.0,0.009
3164.0,0.009899999999999999
3163.0,0.0083
3162.0,0.007699999999999999
3161.0,0.0086
3160.0,0.009000000000000001
3159.0,0.0073999999999999995
3158.0,0.0078
3157.0,0.0082
3156.0,0.0070999999999999995
3155.0,0.0085
3154.0,0.008
3153.0,0.0074
3152.0,0.007299999999999999
3151.0,0.0082
3150.0,0.0076
3149.0,0.0075
3148.0,0.0064
3147.0,0.0068000000000000005
3146.0,0.0077
3145.0,0.0071
3144.0,0.007
3143.0,0.0074
3142.0,0.0058
3141.0,0.0068
3140.0,0.0067
3139.0,0.0067
3138.0,0.0056
3137.0,0.0071
3136.0,0.0065
3135.0,0.0054
3134.0,0.0073
3133.0,0.0072
3132.0,0.0057
3131.0,0.0053
3130.0,0.0052
3129.0,0.0052
3128.0,0.005600000000000001
3127.0,0.006500000000000001
3126.0,0.0059
3125.0,0.0068
3124.0,0.0068
3123.0,0.0047
3122.0,0.006200000000000001
3121.0,0.0056
3120.0,0.0051
3119.0,0.0066
3118.0,0.0066
3117.0,0.004999999999999999
3116.0,0.0065
3115.0,0.0054
3114.0,0.0064
3113.0,0.0053
3112.0,0.0053
3111.0,0.0052
3110.0,0.0042
3109.0,0.0057
3108.0,0.0062
3107.0,0.0042
3106.0,0.004699999999999999
3105.0,0.0062
3104.0,0.0052
3103.0,0.0052
3102.0,0.0042
3101.0,0.0062
3100.0,0.0062
3099.0,0.005600000000000001
3098.0,0.004
3097.0,0.004
3096.0,0.005
3095.0,0.006
3094.0,0.006
3093.0,0.0055
3092.0,0.006
3091.0,0.0045000000000000005
3090.0,0.0055
3089.0,0.005
3088.0,0.005
3087.0,0.0055
3086.0,0.006
3085.0,0.004
3084.0,0.0055
3083.0,0.004
3082.0,0.005
3081.0,0.0055
3080.0,0.005
3079.0,0.006
3078.0,0.005
3077.0,0.004
3076.0,0.0045000000000000005
3075.0,0.0045000000000000005
3074.0,0.0045000000000000005
3073.0,0.005
3072.0,0.0055
3071.0,0.0045000000000000005
3070.0,0.005
3069.0,0.0046
3068.0,0.005600000000000001
3067.0,0.0041
3066.0,0.0061
3065.0,0.004699999999999999
3064.0,0.0042
3063.0,0.0052
3062.0,0.0043
3061.0,0.0053
3060.0,0.0043
3059.0,0.0042
3058.0,0.0052
3057.0,0.0052
3056.0,0.0051
3055.0,0.005600000000000001
3054.0,0.0061
3053.0,0.005600000000000001
3052.0,0.0046
3051.0,0.005600000000000001
3050.0,0.0042
3049.0,0.0063
3048.0,0.0063
3047.0,0.0043
3046.0,0.0044
3045.0,0.0044
3044.0,0.0064
3043.0,0.0064
3042.0,0.0065
3041.0,0.0065
3040.0,0.0066
3039.0,0.0060999999999999995
3038.0,0.0046
3037.0,0.0051
3036.0,0.0065
3035.0,0.004999999999999999
3034.0,0.0065
3033.0,0.005900000000000001
3032.0,0.0049
3031.0,0.0044
3030.0,0.0044
3029.0,0.004999999999999999
3028.0,0.0045
3027.0,0.0060999999999999995
3026.0,0.0056
3025.0,0.0067
3024.0,0.0048
3023.0,0.0058
3022.0,0.0054
3021.0,0.0055
3020.0,0.0072
3019.0,0.0063
3018.0,0.006999999999999999
3017.0,0.0072
3016.0,0.0079
3015.0,0.0061
3014.0,0.0083
3013.0,0.0066
3012.0,0.0083
3011.0,0.007
3010.0,0.0092
3009.0,0.007500000000000001
3008.0,0.0087
3007.0,0.0089
3006.0,0.0092
3005.0,0.009
3004.0,0.0093
3003.0,0.0097
3002.0,0.01
3001.0,0.0115
3000.0,0.0115
2999.0,0.0125
2998.0,0.0116
2997.0,0.0142
2996.0,0.012899999999999998
2995.0,0.0137
2994.0,0.0156
2993.0,0.016
2992.0,0.0166
2991.0,0.0193
2990.0,0.0206
2989.0,0.0214
2988.0,0.0224
2987.0,0.0245
2986.0,0.0251
2985.0,0.0284
2984.0,0.0307
2983.0,0.0312
2982.0,0.0347
2981.0,0.0357
2980.0,0.0373
2979.0,0.0397
2978.0,0.0407
2977.0,0.042499999999999996
2976.0,0.0457
2975.0,0.0468
2974.0,0.0472
2973.0,0.0504
2972.0,0.0514
2971.0,0.0516
2970.0,0.0521
2969.0,0.0509
2968.0,0.052
2967.0,0.052
2966.0,0.0524
2965.0,0.0513
2964.0,0.0506
2963.0,0.052
2962.0,0.0508
2961.0,0.0522
2960.0,0.0521
2959.0,0.0501
2958.0,0.0501
2957.0,0.0512
2956.0,0.0503
2955.0,0.0514
2954.0,0.0515
2953.0,0.0526
2952.0,0.0521
2951.0,0.0511
2950.0,0.050499999999999996
2949.0,0.051
2948.0,0.0524
2947.0,0.0518
2946.0,0.0523
2945.0,0.0509
2944.0,0.0515
2943.0,0.0516
2942.0,0.0518
2941.0,0.0511
2940.0,0.0534
2939.0,0.0518
2938.0,0.0528
2937.0,0.0543
2936.0,0.0552
2935.0,0.0546
2934.0,0.056
2933.0,0.0544
2932.0,0.0558
2931.0,0.0567
2930.0,0.0565
2929.0,0.0563
2928.0,0.0561
2927.0,0.056799999999999996
2926.0,0.057
2925.0,0.0571
2924.0,0.0587
2923.0,0.0578
2922.0,0.0584
2921.0,0.0584
2920.0,0.059000000000000004
2919.0,0.058
2918.0,0.057
2917.0,0.0591
2916.0,0.0571
2915.0,0.0582
2914.0,0.0578
2913.0,0.0574
2912.0,0.0586
2911.0,0.0588
2910.0,0.06
2909.0,0.0592
2908.0,0.0584
2907.0,0.0597
2906.0,0.0604
2905.0,0.059199999999999996
2904.0,0.0604
2903.0,0.0617
2902.0,0.0599
2901.0,0.0617
2900.0,0.0614
2899.0,0.0616
2898.0,0.060899999999999996
2897.0,0.0616
2896.0,0.0624
2895.0,0.0627
2894.0,0.0626
2893.0,0.0645
2892.0,0.0645
2891.0,0.0634
2890.0,0.0659
2889.0,0.0664
2888.0,0.0664
2887.0,0.0664
2886.0,0.067
2885.0,0.0676
2884.0,0.0682
2883.0,0.0688
2882.0,0.0699
2881.0,0.0701
2880.0,0.0708
2879.0,0.0708
2878.0,0.0724
2877.0,0.0733
2876.0,0.0716
2875.0,0.07390000000000001
2874.0,0.0719
2873.0,0.0733
2872.0,0.0715
2871.0,0.0715
2870.0,0.0709
2869.0,0.0705
2868.0,0.0695
2867.0,0.0678
2866.0,0.0659
2865.0,0.0659
2864.0,0.0648
2863.0,0.0621
2862.0,0.0604
2861.0,0.059500000000000004
2860.0,0.0572
2859.0,0.0548
2858.0,0.0529
2857.0,0.051
2856.0,0.0502
2855.0,0.0475
2854.0,0.0453
2853.0,0.0443
2852.0,0.0438
2851.0,0.042300000000000004
2850.0,0.0404
2849.0,0.0387
2848.0,0.0375
2847.0,0.0374
2846.0,0.0343
2845.0,0.0354
2844.0,0.0341
2843.0,0.0323
2842.0,0.033
2841.0,0.0323
2840.0,0.031599999999999996
2839.0,0.028999999999999998
2838.0,0.028399999999999998
2837.0,0.0288
2836.0,0.0282
2835.0,0.0281
2834.0,0.0265
2833.0,0.0259
2832.0,0.0253
2831.0,0.0241
2830.0,0.025
2829.0,0.0234
2828.0,0.0223
2827.0,0.023200000000000002
2826.0,0.0217
2825.0,0.0227
2824.0,0.0218
2823.0,0.0208
2822.0,0.0204
2821.0,0.0205
2820.0,0.0201
2819.0,0.018199999999999997
2818.0,0.0184
2817.0,0.0185
2816.0,0.019200000000000002
2815.0,0.0184
2814.0,0.0176
2813.0,0.0178
2812.0,0.017
2811.0,0.0162
2810.0,0.0154
2809.0,0.0166
2808.0,0.015300000000000001
2807.0,0.0166
2806.0,0.0153
2805.0,0.013999999999999999
2804.0,0.0137
2803.0,0.0154
2802.0,0.0131
2801.0,0.0143
2800.0,0.0136
2799.0,0.0133
2798.0,0.012499999999999999
2797.0,0.012199999999999999
2796.0,0.013000000000000001
2795.0,0.0123
2794.0,0.0116
2793.0,0.012900000000000002
2792.0,0.0121
2791.0,0.012400000000000001
2790.0,0.010799999999999999
2789.0,0.0121
2788.0,0.009899999999999999
2787.0,0.011300000000000001
2786.0,0.009600000000000001
2785.0,0.009899999999999999
2784.0,0.0108
2783.0,0.0101
2782.0,0.009000000000000001
2781.0,0.0103
2780.0,0.0097
2779.0,0.01
2778.0,0.008400000000000001
2777.0,0.008799999999999999
2776.0,0.0097
2775.0,0.010100000000000001
2774.0,0.0095
2773.0,0.0089
2772.0,0.0094
2771.0,0.009300000000000001
2770.0,0.0078000000000000005
2769.0,0.008199999999999999
2768.0,0.0081
2767.0,0.0085
2766.0,0.009500000000000001
2765.0,0.007899999999999999
2764.0,0.0089
2763.0,0.0078
2762.0,0.0073
2761.0,0.0077
2760.0,0.008700000000000001
2759.0,0.0082
2758.0,0.0077
2757.0,0.007200000000000001
2756.0,0.0082
2755.0,0.0077
2754.0,0.007599999999999999
2753.0,0.008700000000000001
2752.0,0.0082
2751.0,0.0092
2750.0,0.007200000000000001
2749.0,0.0091
2748.0,0.0070999999999999995
2747.0,0.0086
2746.0,0.0086
2745.0,0.0086
2744.0,0.0070999999999999995
2743.0,0.009000000000000001
2742.0,0.0085
2741.0,0.0075
2740.0,0.008
2739.0,0.008
2738.0,0.006900000000000001
2737.0,0.0074
2736.0,0.0074
2735.0,0.0079
2734.0,0.006900000000000001
2733.0,0.006900000000000001
2732.0,0.007299999999999999
2731.0,0.0083
2730.0,0.0083
2729.0,0.0078
2728.0,0.0077
2727.0,0.0067
2726.0,0.0077
2725.0,0.0082
2724.0,0.0066
2723.0,0.0076
2722.0,0.006999999999999999
2721.0,0.0069
2720.0,0.008400000000000001
2719.0,0.0063
2718.0,0.0077
2717.0,0.0072
2716.0,0.0081
2715.0,0.006500000000000001
2714.0,0.0074
2713.0,0.0078
2712.0,0.006200000000000001
2711.0,0.0056
2710.0,0.0060999999999999995
2709.0,0.006999999999999999
2708.0,0.006999999999999999
2707.0,0.005900000000000001
2706.0,0.0054
2705.0,0.0053
2704.0,0.006699999999999999
2703.0,0.0051
2702.0,0.007
2701.0,0.007
2700.0,0.0069
2699.0,0.0049
2698.0,0.0058
2697.0,0.0068
2696.0,0.0057
2695.0,0.0066
2694.0,0.0055
2693.0,0.0044
2692.0,0.0058
2691.0,0.004699999999999999
2690.0,0.0062
2689.0,0.0051
2688.0,0.0055
2687.0,0.0049
2686.0,0.0059
2685.0,0.0048
2684.0,0.0043
2683.0,0.0057
2682.0,0.0052
2681.0,0.0056
2680.0,0.0051
2679.0,0.004999999999999999
2678.0,0.0034999999999999996
2677.0,0.0054
2676.0,0.0048000000000000004
2675.0,0.0053
2674.0,0.0043
2673.0,0.0043
2672.0,0.0042
2671.0,0.0036999999999999997
2670.0,0.0051
2669.0,0.0036000000000000003
2668.0,0.0035
2667.0,0.0045000000000000005
2666.0,0.0045000000000000005
2665.0,0.0045000000000000005
2664.0,0.0035
2663.0,0.004399999999999999
2662.0,0.004399999999999999
2661.0,0.0049
2660.0,0.0043
2659.0,0.0043
2658.0,0.0028
2657.0,0.0043
2656.0,0.0048000000000000004
2655.0,0.0033
2654.0,0.0047
2653.0,0.0047
2652.0,0.004200000000000001
2651.0,0.0036
2650.0,0.0026
2649.0,0.0036
2648.0,0.0046
2647.0,0.0026
2646.0,0.0026
2645.0,0.0036
2644.0,0.0036
2643.0,0.0025
2642.0,0.0045000000000000005
2641.0,0.004
2640.0,0.0025
2639.0,0.0035
2638.0,0.0045000000000000005
2637.0,0.0029
2636.0,0.0029
2635.0,0.0024
2634.0,0.0039
2633.0,0.0034
2632.0,0.0024
2631.0,0.0024
2630.0,0.0029
2629.0,0.0024
2628.0,0.004399999999999999
2627.0,0.004399999999999999
2626.0,0.0033
2625.0,0.0032
2624.0,0.004200000000000001
2623.0,0.0037
2622.0,0.004200000000000001
2621.0,0.0023
2620.0,0.0023
2619.0,0.0027
2618.0,0.0022
2617.0,0.0037
2616.0,0.0027
2615.0,0.0031
2614.0,0.0037
2613.0,0.004200000000000001
2612.0,0.0040999999999999995
2611.0,0.0040999999999999995
2610.0,0.0036
2609.0,0.0040999999999999995
2608.0,0.0027
2607.0,0.0022
2606.0,0.0027
2605.0,0.0037
2604.0,0.0031
2603.0,0.0026
2602.0,0.0021
2601.0,0.0026
2600.0,0.0026
2599.0,0.0026
2598.0,0.0037
2597.0,0.0026
2596.0,0.0026
2595.0,0.004
2594.0,0.0035
2593.0,0.003
2592.0,0.0031
2591.0,0.0031
2590.0,0.0040999999999999995
2589.0,0.0021
2588.0,0.0025
2587.0,0.004
2586.0,0.004
2585.0,0.0018999999999999998
2584.0,0.0029
2583.0,0.004
2582.0,0.0025
2581.0,0.0035
2580.0,0.0018999999999999998
2579.0,0.0029
2578.0,0.0034
2577.0,0.0029
2576.0,0.0018999999999999998
2575.0,0.0018
2574.0,0.0039
2573.0,0.0018999999999999998
2572.0,0.0018999999999999998
2571.0,0.0018999999999999998
2570.0,0.0018999999999999998
2569.0,0.0018999999999999998
2568.0,0.0024
2567.0,0.0018999999999999998
2566.0,0.0023
2565.0,0.0038
2564.0,0.0018
2563.0,0.0023
2562.0,0.0038
2561.0,0.0029
2560.0,0.0039
2559.0,0.0039
2558.0,0.0018
2557.0,0.0028
2556.0,0.0038
2555.0,0.0018
2554.0,0.0033
2553.0,0.0018
2552.0,0.0033
2551.0,0.0018
2550.0,0.0028
2549.0,0.0039
2548.0,0.0024
2547.0,0.0029
2546.0,0.0024
2545.0,0.0024
2544.0,0.0039
2543.0,0.0039
2542.0,0.0039
2541.0,0.002
2540.0,0.002
2539.0,0.0021
2538.0,0.0026
2537.0,0.0026
2536.0,0.0021
2535.0,0.0026
2534.0,0.0040999999999999995
2533.0,0.003
2532.0,0.0025
2531.0,0.002
2530.0,0.0025
2529.0,0.0035
2528.0,0.003
2527.0,0.0025
2526.0,0.004
2525.0,0.0035
2524.0,0.004
2523.0,0.002
2522.0,0.002
2521.0,0.0035
2520.0,0.0039
2519.0,0.0018999999999999998
2518.0,0.0023
2517.0,0.0023
2516.0,0.0023
2515.0,0.0018
2514.0,0.0029
2513.0,0.0024
2512.0,0.0029
2511.0,0.0024
2510.0,0.0029
2509.0,0.0029
2508.0,0.0024
2507.0,0.0029
2506.0,0.0029
2505.0,0.0039
2504.0,0.0018
2503.0,0.0033
2502.0,0.0027
2501.0,0.0037
2500.0,0.0038
2499.0,0.0038
2498.0,0.0028
2497.0,0.0023
2496.0,0.0028
2495.0,0.0033
2494.0,0.0028
2493.0,0.0018
2492.0,0.0018999999999999998
2491.0,0.0038
2490.0,0.0018
2489.0,0.0022
2488.0,0.0022
2487.0,0.0017000000000000001
2486.0,0.0037
2485.0,0.0022
2484.0,0.0017000000000000001
2483.0,0.0022
2482.0,0.0022
2481.0,0.0036
2480.0,0.0026
2479.0,0.0027
2478.0,0.0032
2477.0,0.0036
2476.0,0.0021
2475.0,0.0035
2474.0,0.003
2473.0,0.0015
2472.0,0.003
2471.0,0.0024
2470.0,0.0029
2469.0,0.0013
2468.0,0.0013
2467.0,0.0013999999999999998
2466.0,0.0029
2465.0,0.0024
2464.0,0.0024
2463.0,0.0018
2462.0,0.0028
2461.0,0.0028
2460.0,0.0018
2459.0,0.0028
2458.0,0.0027
2457.0,0.0022
2456.0,0.0032
2455.0,0.0017000000000000001
2454.0,0.0027
2453.0,0.0027
2452.0,0.0022
2451.0,0.0026
2450.0,0.0015999999999999999
2449.0,0.0010999999999999998
2448.0,0.0015999999999999999
2447.0,0.0021
2446.0,0.0015
2445.0,0.002
2444.0,0.0025
2443.0,0.001
2442.0,0.001
2441.0,0.0031
2440.0,0.0015999999999999999
2439.0,0.0021
2438.0,0.0010999999999999998
2437.0,0.001
2436.0,0.0015
2435.0,0.002
2434.0,0.003
2433.0,0.0029
2432.0,0.0009
2431.0,0.0007999999999999999
2430.0,0.0029
2429.0,0.0014
2428.0,0.0029
2427.0,0.0009
2426.0,0.0009
2425.0,0.0029
2424.0,0.0014
2423.0,0.0019
2422.0,0.0009
2421.0,0.0029
2420.0,0.0024000000000000002
2419.0,0.0014
2418.0,0.0024000000000000002
2417.0,0.0009
2416.0,0.001
2415.0,0.0021
2414.0,0.0010999999999999998
2413.0,0.0010999999999999998
2412.0,0.0026
2411.0,0.002
2410.0,0.0015
2409.0,0.0025
2408.0,0.002
2407.0,0.0025
2406.0,0.003
2405.0,0.002
2404.0,0.0014
2403.0,0.0029
2402.0,0.0009
2401.0,0.0014
2400.0,0.0018
2399.0,0.0007999999999999999
2398.0,0.0013
2397.0,0.0023
2396.0,0.0028
2395.0,0.0013
2394.0,0.0019
2393.0,0.0029
2392.0,0.0019
2391.0,0.0018
2390.0,0.0023
2389.0,0.0013
2388.0,0.0018
2387.0,0.0007999999999999999
2386.0,0.0027
2385.0,0.0027
2384.0,0.0021999999999999997
2383.0,0.0021999999999999997
2382.0,0.0027
2381.0,0.0017
2380.0,0.0012
2379.0,0.0006999999999999999
2378.0,0.0006999999999999999
2377.0,0.0006999999999999999
2376.0,0.0011
2375.0,0.0016
2374.0,0.0006000000000000001
2373.0,0.0021999999999999997
2372.0,0.0012
2371.0,0.0027
2370.0,0.0027
2369.0,0.0016
2368.0,0.0011
2367.0,0.0026
2366.0,0.0006000000000000001
2365.0,0.0016
2364.0,0.0012
2363.0,0.0027
2362.0,0.0026
2361.0,0.0011
2360.0,0.0021000000000000003
2359.0,0.0006000000000000001
2358.0,0.0011
2357.0,0.0026
2356.0,0.0006000000000000001
2355.0,0.0026
2354.0,0.0027
2353.0,0.0006999999999999999
2352.0,0.0026
2351.0,0.0026
2350.0,0.0025
2349.0,0.0021000000000000003
2348.0,0.0006000000000000001
2347.0,0.0026
2346.0,0.002
2345.0,0.001
2344.0,0.002
2343.0,0.0005
2342.0,0.0006000000000000001
2341.0,0.0021000000000000003
2340.0,0.0006000000000000001
2339.0,0.0015
2338.0,0.0005
2337.0,0.001
2336.0,0.0026
2335.0,0.0011
2334.0,0.0021000000000000003
2333.0,0.001
2332.0,0.002
2331.0,0.0025
2330.0,0.0019
2329.0,0.0014
2328.0,0.0009
2327.0,0.0009
2326.0,0.001
2325.0,0.001
2324.0,0.0025
2323.0,0.0015
2322.0,0.001
2321.0,0.0015
2320.0,0.001
2319.0,0.0025
2318.0,0.0015
2317.0,0.0025
2316.0,0.0009
2315.0,0.0009
2314.0,0.0009
2313.0,0.0019
2312.0,0.0019
2311.0,0.0005
2310.0,0.002
2309.0,0.0025
2308.0,0.0025
2307.0,0.0016
2306.0,0.0006000000000000001
2305.0,0.0016
2304.0,0.0026
2303.0,0.0026
2302.0,0.0006000000000000001
2301.0,0.0021000000000000003
2300.0,0.0017
2299.0,0.0017
2298.0,0.0017
2297.0,0.0017
2296.0,0.0006999999999999999
2295.0,0.0011
2294.0,0.0011
2293.0,0.0016
2292.0,0.0016
2291.0,0.0026
2290.0,0.0026
2289.0,0.0011
2288.0,0.0012
2287.0,0.0012
2286.0,0.0027
2285.0,0.0017
2284.0,0.0017
2283.0,0.0012
2282.0,0.0021999999999999997
2281.0,0.0026
2280.0,0.0021000000000000003
2279.0,0.0026
2278.0,0.0021000000000000003
2277.0,0.0006999999999999999
2276.0,0.0006999999999999999
2275.0,0.0017
2274.0,0.0006999999999999999
2273.0,0.0028
2272.0,0.0028
2271.0,0.0017
2270.0,0.0017
2269.0,0.0021999999999999997
2268.0,0.0012
2267.0,0.0021999999999999997
2266.0,0.0007999999999999999
2265.0,0.0007999999999999999
2264.0,0.0009
2263.0,0.0029
2262.0,0.0019
2261.0,0.0009
2260.0,0.0029
2259.0,0.0014
2258.0,0.0024000000000000002
2257.0,0.0029
2256.0,0.0013
2255.0,0.0028
2254.0,0.0017
2253.0,0.0021999999999999997
2252.0,0.0027
2251.0,0.0023
2250.0,0.0025
2249.0,0.002
2248.0,0.001
2247.0,0.0019
2246.0,0.0006999999999999999
2245.0,0.0027
2244.0,0.0016
2243.0,0.0016
2242.0,0.0012
2241.0,0.0029
2240.0,0.003
2239.0,0.0031
2238.0,0.0026
2237.0,0.0025
2236.0,0.0024000000000000002
2235.0,0.0006999999999999999
2234.0,0.0027
2233.0,0.0021999999999999997
2232.0,0.0006999999999999999
2231.0,0.0017
2230.0,0.0023
2229.0,0.0024000000000000002
2228.0,0.0029
2227.0,0.0007999999999999999
2226.0,0.0018
2225.0,0.0021999999999999997
2224.0,0.0021999999999999997
2223.0,0.0028
2222.0,0.0009
2221.0,0.0024000000000000002
2220.0,0.0015
2219.0,0.0025
2218.0,0.003
2217.0,0.0015
2216.0,0.0014
2215.0,0.0024000000000000002
2214.0,0.0019
2213.0,0.0029
2212.0,0.0009
2211.0,0.0019
2210.0,0.0028
2209.0,0.0018
2208.0,0.0018
2207.0,0.0023
2206.0,0.0029
2205.0,0.0009
2204.0,0.0009
2203.0,0.0014
2202.0,0.0028
2201.0,0.0023
2200.0,0.0013
2199.0,0.0007999999999999999
2198.0,0.0023
2197.0,0.0029
2196.0,0.002
2195.0,0.0010999999999999998
2194.0,0.0010999999999999998
2193.0,0.0021
2192.0,0.0027
2191.0,0.0027
2190.0,0.0027
2189.0,0.0027
2188.0,0.0017000000000000001
2187.0,0.0032
2186.0,0.0021
2185.0,0.0026
2184.0,0.0026
2183.0,0.002
2182.0,0.002
2181.0,0.0025
2180.0,0.0009
2179.0,0.002
2178.0,0.002
2177.0,0.002
2176.0,0.0031
2175.0,0.0031
2174.0,0.0031
2173.0,0.0031
2172.0,0.0015999999999999999
2171.0,0.003
2170.0,0.002
2169.0,0.0009
2168.0,0.0019
2167.0,0.0029
2166.0,0.0019
2165.0,0.0015
2164.0,0.0031
2163.0,0.0012000000000000001
2162.0,0.0010999999999999998
2161.0,0.002
2160.0,0.0014
2159.0,0.0019
2158.0,0.0019
2157.0,0.0025
2156.0,0.0015999999999999999
2155.0,0.0031
2154.0,0.0015999999999999999
2153.0,0.003
2152.0,0.0025
2151.0,0.0026
2150.0,0.0031
2149.0,0.0021
2148.0,0.0026
2147.0,0.0015999999999999999
2146.0,0.002
2145.0,0.0025
2144.0,0.002
2143.0,0.0026
2142.0,0.0015999999999999999
2141.0,0.0022
2140.0,0.0022
2139.0,0.0017000000000000001
2138.0,0.0021
2137.0,0.0010999999999999998
2136.0,0.0021
2135.0,0.0015999999999999999
2134.0,0.0012000000000000001
2133.0,0.0028
2132.0,0.0033
2131.0,0.0018
2130.0,0.0013
2129.0,0.0013
2128.0,0.0029
2127.0,0.0013999999999999998
2126.0,0.0033
2125.0,0.0023
2124.0,0.0023
2123.0,0.0027
2122.0,0.0022
2121.0,0.0027
2120.0,0.0012000000000000001
2119.0,0.0013
2118.0,0.0023
2117.0,0.0022
2116.0,0.0022
2115.0,0.0015999999999999999
2114.0,0.0025
2113.0,0.003
2112.0,0.003
2111.0,0.0010999999999999998
2110.0,0.0012000000000000001
2109.0,0.0012000000000000001
2108.0,0.0023
2107.0,0.0013
2106.0,0.0028
2105.0,0.0034
2104.0,0.0024
2103.0,0.0018
2102.0,0.0023
2101.0,0.0012000000000000001
2100.0,0.0017000000000000001
2099.0,0.0028
2098.0,0.0018
2097.0,0.0024
2096.0,0.0018999999999999998
2095.0,0.0034
2094.0,0.0024
2093.0,0.0024
2092.0,0.0034
2091.0,0.0024
2090.0,0.0034
2089.0,0.0018999999999999998
2088.0,0.0034
2087.0,0.0034
2086.0,0.0013
2085.0,0.0013
2084.0,0.0023
2083.0,0.0013
2082.0,0.0012000000000000001
2081.0,0.0012000000000000001
2080.0,0.0013
2079.0,0.0023
2078.0,0.0018
2077.0,0.0023
2076.0,0.0013
2075.0,0.0033
2074.0,0.0028
2073.0,0.0013
2072.0,0.0018
2071.0,0.0013
2070.0,0.0022
2069.0,0.0022
2068.0,0.0027
2067.0,0.0026
2066.0,0.0026
2065.0,0.003
2064.0,0.0025
2063.0,0.0025
2062.0,0.0025
2061.0,0.0026
2060.0,0.0021
2059.0,0.0031
2058.0,0.0015
2057.0,0.001
2056.0,0.0010999999999999998
2055.0,0.0010999999999999998
2054.0,0.0022
2053.0,0.0022
2052.0,0.0022
2051.0,0.0022
2050.0,0.0022
2049.0,0.0017000000000000001
2048.0,0.0032
2047.0,0.0017000000000000001
2046.0,0.0027
2045.0,0.0015999999999999999
2044.0,0.002
2043.0,0.0028
2042.0,0.0006000000000000001
2041.0,0.0011
2040.0,0.0016
2039.0,0.0027
2038.0,0.0018
2037.0,0.0013
2036.0,0.0028
2035.0,0.0029
2034.0,0.0009
2033.0,0.0029
2032.0,0.002
2031.0,0.0025
2030.0,0.003
2029.0,0.0015
2028.0,0.0024000000000000002
2027.0,0.0024000000000000002
2026.0,0.0024000000000000002
2025.0,0.0029
2024.0,0.0028
2023.0,0.0028
2022.0,0.0018
2021.0,0.0021999999999999997
2020.0,0.0006999999999999999
2019.0,0.0026
2018.0,0.0012
2017.0,0.0018
2016.0,0.003
2015.0,0.003
2014.0,0.001
2013.0,0.0019
2012.0,0.0009
2011.0,0.0029
2010.0,0.0015
2009.0,0.0015999999999999999
2008.0,0.0027
2007.0,0.0027
2006.0,0.0012000000000000001
2005.0,0.0026
2004.0,0.001
2003.0,0.0019
2002.0,0.0009
2001.0,0.001
2000.0,0.0031
1999.0,0.0022
1998.0,0.0018
1997.0,0.0028
1996.0,0.0013999999999999998
1995.0,0.0018999999999999998
1994.0,0.0024
1993.0,0.0018999999999999998
1992.0,0.0024
1991.0,0.0029
1990.0,0.0018999999999999998
1989.0,0.003
1988.0,0.0015999999999999999
1987.0,0.0031
1986.0,0.0031
1985.0,0.0032
1984.0,0.0027
1983.0,0.0017000000000000001
1982.0,0.0032
1981.0,0.0027
1980.0,0.0032
1979.0,0.0032
1978.0,0.0027
1977.0,0.0022
1976.0,0.0028
1975.0,0.0033
1974.0,0.0023
1973.0,0.0039
1972.0,0.0018
1971.0,0.0038
1970.0,0.0032
1969.0,0.0021
1968.0,0.0025
1967.0,0.0036
1966.0,0.0032
1965.0,0.0024
1964.0,0.002
1963.0,0.004
1962.0,0.0039
1961.0,0.0024
1960.0,0.004
1959.0,0.0026
1958.0,0.0040999999999999995
1957.0,0.0022
1956.0,0.004200000000000001
1955.0,0.0037
1954.0,0.0036
1953.0,0.0021
1952.0,0.0025
1951.0,0.0034
1950.0,0.003
1949.0,0.0021
1948.0,0.0036
1947.0,0.0026
1946.0,0.002
1945.0,0.0039
1944.0,0.0029
1943.0,0.0038
1942.0,0.0024
1941.0,0.0034
1940.0,0.0025
1939.0,0.002
1938.0,0.0024
1937.0,0.0029
1936.0,0.0034
1935.0,0.002
1934.0,0.0035
1933.0,0.0036
1932.0,0.0031
1931.0,0.0032
1930.0,0.0032
1929.0,0.0043
1928.0,0.0028
1927.0,0.0028
1926.0,0.0043
1925.0,0.0023
1924.0,0.0043
1923.0,0.0033
1922.0,0.0043
1921.0,0.0023
1920.0,0.0038
1919.0,0.004200000000000001
1918.0,0.0022
1917.0,0.0036
1916.0,0.0034
1915.0,0.0039
1914.0,0.0038
1913.0,0.0023
1912.0,0.0029
1911.0,0.0038
1910.0,0.0017000000000000001
1909.0,0.0027
1908.0,0.0015999999999999999
1907.0,0.0037
1906.0,0.0017000000000000001
1905.0,0.0027
1904.0,0.0017000000000000001
1903.0,0.0015999999999999999
1902.0,0.0015999999999999999
1901.0,0.0035
1900.0,0.0035
1899.0,0.0024
1898.0,0.0024
1897.0,0.0029
1896.0,0.0018999999999999998
1895.0,0.0029
1894.0,0.0013999999999999998
1893.0,0.003
1892.0,0.002
1891.0,0.002
1890.0,0.002
1889.0,0.0029
1888.0,0.0029
1887.0,0.0029
1886.0,0.0013999999999999998
1885.0,0.0034
1884.0,0.0034
1883.0,0.0018999999999999998
1882.0,0.0013999999999999998
1881.0,0.0034
1880.0,0.0024
1879.0,0.0023
1878.0,0.0028
1877.0,0.0033
1876.0,0.0018999999999999998
1875.0,0.0013999999999999998
1874.0,0.0018999999999999998
1873.0,0.0018
1872.0,0.0033
1871.0,0.0012000000000000001
1870.0,0.0010999999999999998
1869.0,0.0015999999999999999
1868.0,0.0027
1867.0,0.0032
1866.0,0.0027
1865.0,0.0022
1864.0,0.0032
1863.0,0.0022
1862.0,0.0027
1861.0,0.0021
1860.0,0.0010999999999999998
1859.0,0.0015999999999999999
1858.0,0.0026
1857.0,0.0031
1856.0,0.0031
1855.0,0.0025
1854.0,0.0025
1853.0,0.003
1852.0,0.001
1851.0,0.002
1850.0,0.0025
1849.0,0.0015
1848.0,0.0015
1847.0,0.0024000000000000002
1846.0,0.0029
1845.0,0.0009
1844.0,0.0019
1843.0,0.0024000000000000002
1842.0,0.0015
1841.0,0.0015
1840.0,0.0021
1839.0,0.003
1838.0,0.001
1837.0,0.002
1836.0,0.001
1835.0,0.0025
1834.0,0.0015999999999999999
1833.0,0.002
1832.0,0.001
1831.0,0.002
1830.0,0.0025
1829.0,0.0025
1828.0,0.0031
1827.0,0.0026
1826.0,0.0015999999999999999
1825.0,0.0031
1824.0,0.0012000000000000001
1823.0,0.0027
1822.0,0.0022
1821.0,0.0027
1820.0,0.0022
1819.0,0.0027
1818.0,0.0017000000000000001
1817.0,0.0017000000000000001
1816.0,0.0017000000000000001
1815.0,0.0017000000000000001
1814.0,0.0022
1813.0,0.0032
1812.0,0.0028
1811.0,0.0018
1810.0,0.0018
1809.0,0.0018
1808.0,0.0024
1807.0,0.0018999999999999998
1806.0,0.0013999999999999998
1805.0,0.0024
1804.0,0.0034
1803.0,0.0024
1802.0,0.0024
1801.0,0.0035
1800.0,0.002
1799.0,0.0015
1798.0,0.003
1797.0,0.0025
1796.0,0.0015999999999999999
1795.0,0.0026
1794.0,0.0031
1793.0,0.0021
1792.0,0.0031
1791.0,0.0015999999999999999
1790.0,0.0036
1789.0,0.0027
1788.0,0.0032
1787.0,0.0018
1786.0,0.0018
1785.0,0.0039
1784.0,0.003
1783.0,0.0026
1782.0,0.0040999999999999995
1781.0,0.0021
1780.0,0.0032
1779.0,0.0022
1778.0,0.0043
1777.0,0.0029
1776.0,0.004
1775.0,0.0040999999999999995
1774.0,0.0032
1773.0,0.0048000000000000004
1772.0,0.0045000000000000005
1771.0,0.0051
1770.0,0.0052
1769.0,0.0049
1768.0,0.0046
1767.0,0.0058
1766.0,0.0045000000000000005
1765.0,0.0061
1764.0,0.0063
1763.0,0.0054
1762.0,0.0060999999999999995
1761.0,0.0069
1760.0,0.0051
1759.0,0.0057
1758.0,0.0064
1757.0,0.0060999999999999995
1756.0,0.0058
1755.0,0.0074
1754.0,0.006500000000000001
1753.0,0.007600000000000001
1752.0,0.0063
1751.0,0.006999999999999999
1750.0,0.0072
1749.0,0.0081
1748.0,0.007899999999999999
1747.0,0.0083
1746.0,0.0103
1745.0,0.008799999999999999
1744.0,0.01
1743.0,0.012299999999999998
1742.0,0.0132
1741.0,0.0132
1740.0,0.015000000000000001
1739.0,0.0154
1738.0,0.0176
1737.0,0.0172
1736.0,0.019
1735.0,0.0221
1734.0,0.024
1733.0,0.0234
1732.0,0.0248
1731.0,0.0252
1730.0,0.0254
1729.0,0.0257
1728.0,0.0248
1727.0,0.0251
1726.0,0.0247
1725.0,0.0222
1724.0,0.0212
1723.0,0.0213
1722.0,0.0195
1721.0,0.0199
1720.0,0.0183
1719.0,0.018600000000000002
1718.0,0.0176
1717.0,0.0177
1716.0,0.017
1715.0,0.0169
1714.0,0.015799999999999998
1713.0,0.0162
1712.0,0.0155
1711.0,0.0162
1710.0,0.016900000000000002
1709.0,0.0156
1708.0,0.0147
1707.0,0.014199999999999999
1706.0,0.0142
1705.0,0.0137
1704.0,0.012299999999999998
1703.0,0.013999999999999999
1702.0,0.0126
1701.0,0.0121
1700.0,0.0104
1699.0,0.0109
1698.0,0.01
1697.0,0.0093
1696.0,0.0101
1695.0,0.0105
1694.0,0.0099
1693.0,0.0094
1692.0,0.0105
1691.0,0.0101
1690.0,0.0109
1689.0,0.0103
1688.0,0.0112
1687.0,0.011099999999999999
1686.0,0.0131
1685.0,0.0129
1684.0,0.0139
1683.0,0.014199999999999999
1682.0,0.0163
1681.0,0.0149
1680.0,0.017400000000000002
1679.0,0.016399999999999998
1678.0,0.0183
1677.0,0.018500000000000003
1676.0,0.0178
1675.0,0.016999999999999998
1674.0,0.0171
1673.0,0.018600000000000002
1672.0,0.0171
1671.0,0.0181
1670.0,0.019200000000000002
1669.0,0.0177
1668.0,0.019200000000000002
1667.0,0.0177
1666.0,0.0176
1665.0,0.019
1664.0,0.0174
1663.0,0.0167
1662.0,0.0184
1661.0,0.0177
1660.0,0.0169
1659.0,0.0161
1658.0,0.015299999999999998
1657.0,0.0165
1656.0,0.0162
1655.0,0.0143
1654.0,0.0154
1653.0,0.0156
1652.0,0.0145
1651.0,0.015000000000000001
1650.0,0.015000000000000001
1649.0,0.013500000000000002
1648.0,0.014
1647.0,0.013500000000000002
1646.0,0.0145
1645.0,0.0149
1644.0,0.0137
1643.0,0.014
1642.0,0.0142
1641.0,0.0133
1640.0,0.012
1639.0,0.0131
1638.0,0.0117
1637.0,0.0119
1636.0,0.0122
1635.0,0.0114
1634.0,0.010799999999999999
1633.0,0.012199999999999999
1632.0,0.0107
1631.0,0.0103
1630.0,0.0109
1629.0,0.010499999999999999
1628.0,0.0112
1627.0,0.0127
1626.0,0.0126
1625.0,0.0113
1624.0,0.0111
1623.0,0.0108
1622.0,0.0112
1621.0,0.0101
1620.0,0.0112
1619.0,0.0103
1618.0,0.0117
1617.0,0.0125
1616.0,0.013
1615.0,0.0145
1614.0,0.0158
1613.0,0.015099999999999999
1612.0,0.0172
1611.0,0.0165
1610.0,0.016900000000000002
1609.0,0.016
1608.0,0.0147
1607.0,0.0133
1606.0,0.0142
1605.0,0.011300000000000001
1604.0,0.0104
1603.0,0.0116
1602.0,0.0109
1601.0,0.0094
1600.0,0.009
1599.0,0.0086
1598.0,0.007200000000000001
1597.0,0.006900000000000001
1596.0,0.0076
1595.0,0.0068000000000000005
1594.0,0.006500000000000001
1593.0,0.0079
1592.0,0.0058
1591.0,0.0057
1590.0,0.0060999999999999995
1589.0,0.0060999999999999995
1588.0,0.0072
1587.0,0.006
1586.0,0.0078
1585.0,0.0072
1584.0,0.0091
1583.0,0.007500000000000001
1582.0,0.0092
1581.0,0.008199999999999999
1580.0,0.009600000000000001
1579.0,0.0088
1578.0,0.008
1577.0,0.0081
1576.0,0.008199999999999999
1575.0,0.0079
1574.0,0.0067
1573.0,0.0075
1572.0,0.005900000000000001
1571.0,0.0058
1570.0,0.005600000000000001
1569.0,0.007
1568.0,0.0049
1567.0,0.0059
1566.0,0.0048
1565.0,0.0049
1564.0,0.0059
1563.0,0.0068
1562.0,0.005299999999999999
1561.0,0.0048
1560.0,0.0048
1559.0,0.005299999999999999
1558.0,0.0063999999999999994
1557.0,0.0063999999999999994
1556.0,0.005
1555.0,0.005
1554.0,0.007
1553.0,0.0071
1552.0,0.0061
1551.0,0.0066
1550.0,0.0066
1549.0,0.0052
1548.0,0.0053
1547.0,0.0053
1546.0,0.0053
1545.0,0.0069
1544.0,0.0065
1543.0,0.006999999999999999
1542.0,0.006999999999999999
1541.0,0.0071
1540.0,0.0068
1539.0,0.0059
1538.0,0.0081
1537.0,0.0077
1536.0,0.0063
1535.0,0.0074
1534.0,0.0066
1533.0,0.007299999999999999
1532.0,0.0081
1531.0,0.007899999999999999
1530.0,0.0081
1529.0,0.0089
1528.0,0.0092
1527.0,0.0096
1526.0,0.010700000000000001
1525.0,0.0103
1524.0,0.012400000000000001
1523.0,0.0132
1522.0,0.0137
1521.0,0.0162
1520.0,0.018600000000000002
1519.0,0.019799999999999998
1518.0,0.0248
1517.0,0.0298
1516.0,0.0375
1515.0,0.0419
1514.0,0.0451
1513.0,0.0481
1512.0,0.0495
1511.0,0.0485
1510.0,0.0456
1509.0,0.0412
1508.0,0.0369
1507.0,0.0315
1506.0,0.0262
1505.0,0.0237
1504.0,0.022600000000000002
1503.0,0.021
1502.0,0.0191
1501.0,0.0199
1500.0,0.0178
1499.0,0.0188
1498.0,0.0179
1497.0,0.0168
1496.0,0.019
1495.0,0.0178
1494.0,0.0183
1493.0,0.0184
1492.0,0.0196
1491.0,0.0216
1490.0,0.0218
1489.0,0.0241
1488.0,0.0245
1487.0,0.0251
1486.0,0.0272
1485.0,0.029
1484.0,0.0283
1483.0,0.028399999999999998
1482.0,0.0306
1481.0,0.0301
1480.0,0.0331
1479.0,0.034300000000000004
1478.0,0.0356
1477.0,0.0361
1476.0,0.038
1475.0,0.0393
1474.0,0.0406
1473.0,0.0415
1472.0,0.0423
1471.0,0.0439
1470.0,0.0453
1469.0,0.0467
1468.0,0.0466
1467.0,0.0475
1466.0,0.0496
1465.0,0.0493
1464.0,0.050499999999999996
1463.0,0.0511
1462.0,0.0542
1461.0,0.0547
1460.0,0.0562
1459.0,0.0559
1458.0,0.056799999999999996
1457.0,0.0599
1456.0,0.061
1455.0,0.0599
1454.0,0.0599
1453.0,0.0602
1452.0,0.0591
1451.0,0.0583
1450.0,0.0578
1449.0,0.0582
1448.0,0.0559
1447.0,0.0537
1446.0,0.0532
1445.0,0.051699999999999996
1444.0,0.0508
1443.0,0.0508
1442.0,0.0495
1441.0,0.048299999999999996
1440.0,0.049
1439.0,0.0473
1438.0,0.0475
1437.0,0.0468
1436.0,0.0451
1435.0,0.0455
1434.0,0.0436
1433.0,0.0436
1432.0,0.0427
1431.0,0.0438
1430.0,0.0424
1429.0,0.0436
1428.0,0.0433
1427.0,0.0421
1426.0,0.0414
1425.0,0.0423
1424.0,0.0423
1423.0,0.0418
1422.0,0.0423
1421.0,0.040799999999999996
1420.0,0.0409
1419.0,0.0433
1418.0,0.0422
1417.0,0.042499999999999996
1416.0,0.0443
1415.0,0.0426
1414.0,0.044700000000000004
1413.0,0.0448
1412.0,0.0428
1411.0,0.0433
1410.0,0.0432
1409.0,0.0442
1408.0,0.0431
1407.0,0.0431
1406.0,0.0431
1405.0,0.0432
1404.0,0.0428
1403.0,0.0444
1402.0,0.045
1401.0,0.0446
1400.0,0.0434
1399.0,0.0455
1398.0,0.0448
1397.0,0.0462
1396.0,0.047
1395.0,0.047599999999999996
1394.0,0.0484
1393.0,0.047599999999999996
1392.0,0.0483
1391.0,0.0496
1390.0,0.048799999999999996
1389.0,0.0513
1388.0,0.051
1387.0,0.0528
1386.0,0.0547
1385.0,0.0546
1384.0,0.0557
1383.0,0.054
1382.0,0.0549
1381.0,0.0555
1380.0,0.0547
1379.0,0.0546
1378.0,0.056
1377.0,0.056
1376.0,0.0575
1375.0,0.056
1374.0,0.057
1373.0,0.0591
1372.0,0.0593
1371.0,0.0586
1370.0,0.061900000000000004
1369.0,0.0631
1368.0,0.0641
1367.0,0.0659
1366.0,0.0668
1365.0,0.0668
1364.0,0.064
1363.0,0.0616
1362.0,0.057999999999999996
1361.0,0.0574
1360.0,0.0545
1359.0,0.0537
1358.0,0.0519
1357.0,0.0514
1356.0,0.0519
1355.0,0.0531
1354.0,0.0521
1353.0,0.0527
1352.0,0.0539
1351.0,0.0538
1350.0,0.0545
1349.0,0.0543
1348.0,0.0535
1347.0,0.053200000000000004
1346.0,0.0509
1345.0,0.0478
1344.0,0.0471
1343.0,0.0441
1342.0,0.0423
1341.0,0.0405
1340.0,0.0392
1339.0,0.0392
1338.0,0.040100000000000004
1337.0,0.0392
1336.0,0.039
1335.0,0.0414
1334.0,0.0398
1333.0,0.042300000000000004
1332.0,0.0418
1331.0,0.0429
1330.0,0.0435
1329.0,0.0424
1328.0,0.0438
1327.0,0.0444
1326.0,0.0443
1325.0,0.0436
1324.0,0.0432
1323.0,0.0437
1322.0,0.0416
1321.0,0.0412
1320.0,0.041800000000000004
1319.0,0.0411
1318.0,0.0407
1317.0,0.0405
1316.0,0.0414
1315.0,0.0415
1314.0,0.0437
1313.0,0.0439
1312.0,0.0441
1311.0,0.0452
1310.0,0.0455
1309.0,0.0468
1308.0,0.0487
1307.0,0.0482
1306.0,0.048799999999999996
1305.0,0.0509
1304.0,0.0515
1303.0,0.0542
1302.0,0.0548
1301.0,0.0565
1300.0,0.0556
1299.0,0.0572
1298.0,0.0586
1297.0,0.0588
1296.0,0.0608
1295.0,0.0594
1294.0,0.0589
1293.0,0.0601
1292.0,0.0589
1291.0,0.0601
1290.0,0.059
1289.0,0.058499999999999996
1288.0,0.059
1287.0,0.06
1286.0,0.057999999999999996
1285.0,0.0599
1284.0,0.0592
1283.0,0.059000000000000004
1282.0,0.0577
1281.0,0.0589
1280.0,0.0576
1279.0,0.057
1278.0,0.0578
1277.0,0.0582
1276.0,0.0566
1275.0,0.057
1274.0,0.0579
1273.0,0.0575
1272.0,0.0581
1271.0,0.0574
1270.0,0.0583
1269.0,0.059000000000000004
1268.0,0.0584
1267.0,0.061
1266.0,0.0613
1265.0,0.0634
1264.0,0.0643
1263.0,0.0664
1262.0,0.0703
1261.0,0.073
1260.0,0.0764
1259.0,0.078
1258.0,0.0826
1257.0,0.0843
1256.0,0.087
1255.0,0.0911
1254.0,0.0953
1253.0,0.098
1252.0,0.1018
1251.0,0.105
1250.0,0.1059
1249.0,0.109
1248.0,0.112
1247.0,0.1127
1246.0,0.1127
1245.0,0.1127
1244.0,0.1089
1243.0,0.1056
1242.0,0.1016
1241.0,0.0971
1240.0,0.0925
1239.0,0.0895
1238.0,0.0837
1237.0,0.0809
1236.0,0.0764
1235.0,0.0728
1234.0,0.0704
1233.0,0.0672
1232.0,0.0646
1231.0,0.0636
1230.0,0.0602
1229.0,0.0586
1228.0,0.0556
1227.0,0.0559
1226.0,0.054400000000000004
1225.0,0.0517
1224.0,0.0522
1223.0,0.0493
1222.0,0.0505
1221.0,0.0491
1220.0,0.0472
1219.0,0.0462
1218.0,0.0451
1217.0,0.0447
1216.0,0.0434
1215.0,0.0441
1214.0,0.043000000000000003
1213.0,0.0429
1212.0,0.0422
1211.0,0.0413
1210.0,0.0388
1209.0,0.0376
1208.0,0.037
1207.0,0.0359
1206.0,0.0349
1205.0,0.0341
1204.0,0.0331
1203.0,0.0321
1202.0,0.0337
1201.0,0.0315
1200.0,0.0319
1199.0,0.0324
1198.0,0.0325
1197.0,0.0328
1196.0,0.0344
1195.0,0.0352
1194.0,0.0359
1193.0,0.0364
1192.0,0.0396
1191.0,0.039599999999999996
1190.0,0.0436
1189.0,0.0444
1188.0,0.0468
1187.0,0.0465
1186.0,0.0474
1185.0,0.0448
1184.0,0.0436
1183.0,0.042
1182.0,0.0402
1181.0,0.0365
1180.0,0.0361
1179.0,0.0344
1178.0,0.0325
1177.0,0.031
1176.0,0.0292
1175.0,0.0288
1174.0,0.0286
1173.0,0.0296
1172.0,0.0307
1171.0,0.0311
1170.0,0.0306
1169.0,0.0323
1168.0,0.0313
1167.0,0.033
1166.0,0.0354
1165.0,0.0376
1164.0,0.0391
1163.0,0.0398
1162.0,0.0438
1161.0,0.045
1160.0,0.0489
1159.0,0.0525
1158.0,0.0543
1157.0,0.0584
1156.0,0.0632
1155.0,0.0672
1154.0,0.071
1153.0,0.0764
1152.0,0.0798
1151.0,0.0851
1150.0,0.0888
1149.0,0.09179999999999999
1148.0,0.0972
1147.0,0.0999
1146.0,0.1024
1145.0,0.1062
1144.0,0.1098
1143.0,0.1117
1142.0,0.1165
1141.0,0.1176
1140.0,0.1206
1139.0,0.124
1138.0,0.1253
1137.0,0.1287
1136.0,0.1306
1135.0,0.1314
1134.0,0.1355
1133.0,0.1354
1132.0,0.1371
1131.0,0.1388
1130.0,0.1392
1129.0,0.1398
1128.0,0.1403
1127.0,0.1427
1126.0,0.1426
1125.0,0.1437
1124.0,0.143
1123.0,0.1439
1122.0,0.1455
1121.0,0.1474
1120.0,0.1491
1119.0,0.1499
1118.0,0.1519
1117.0,0.1546
1116.0,0.156
1115.0,0.1603
1114.0,0.162
1113.0,0.1626
1112.0,0.165
1111.0,0.1671
1110.0,0.1689
1109.0,0.1685
1108.0,0.1694
1107.0,0.1702
1106.0,0.1724
1105.0,0.1716
1104.0,0.1734
1103.0,0.1753
1102.0,0.1744
1101.0,0.1766
1100.0,0.1792
1099.0,0.1803
1098.0,0.1811
1097.0,0.1826
1096.0,0.1861
1095.0,0.1866
1094.0,0.189
1093.0,0.1913
1092.0,0.1936
1091.0,0.1945
1090.0,0.196
1089.0,0.1952
1088.0,0.1969
1087.0,0.19720000000000001
1086.0,0.1943
1085.0,0.1931
1084.0,0.1935
1083.0,0.1905
1082.0,0.1873
1081.0,0.1853
1080.0,0.1843
1079.0,0.1817
1078.0,0.177
1077.0,0.1765
1076.0,0.1727
1075.0,0.1706
1074.0,0.1692
1073.0,0.168
1072.0,0.1672
1071.0,0.1661
1070.0,0.1647
1069.0,0.1626
1068.0,0.1637
1067.0,0.162
1066.0,0.1624
1065.0,0.1641
1064.0,0.1625
1063.0,0.1648
1062.0,0.1656
1061.0,0.1673
1060.0,0.171
1059.0,0.1747
1058.0,0.1797
1057.0,0.1871
1056.0,0.1962
1055.0,0.2055
1054.0,0.21610000000000001
1053.0,0.226
1052.0,0.237
1051.0,0.2477
1050.0,0.2567
1049.0,0.2669
1048.0,0.2749
1047.0,0.2818
1046.0,0.2849
1045.0,0.2899
1044.0,0.2914
1043.0,0.2907
1042.0,0.2883
1041.0,0.2862
1040.0,0.2812
1039.0,0.2766
1038.0,0.2706
1037.0,0.2636
1036.0,0.2573
1035.0,0.2484
1034.0,0.241
1033.0,0.2323
1032.0,0.2261
1031.0,0.2177
1030.0,0.2079
1029.0,0.1997
1028.0,0.1922
1027.0,0.1837
1026.0,0.1763
1025.0,0.1685
1024.0,0.1608
1023.0,0.1533
1022.0,0.1468
1021.0,0.1381
1020.0,0.1306
1019.0,0.1248
1018.0,0.1189
1017.0,0.1135
1016.0,0.1079
1015.0,0.1035
1014.0,0.0993
1013.0,0.0954
1012.0,0.0931
1011.0,0.09
1010.0,0.0843
1009.0,0.0819
1008.0,0.0796
1007.0,0.078
1006.0,0.0756
1005.0,0.0742
1004.0,0.0748
1003.0,0.0745
1002.0,0.0739
1001.0,0.0745
1000.0,0.0748
999.0,0.0737
998.0,0.0757
997.0,0.0762
996.0,0.0758
995.0,0.0769
994.0,0.0778
993.0,0.0779
992.0,0.0771
991.0,0.07680000000000001
990.0,0.0761
989.0,0.0729
988.0,0.0715
987.0,0.0684
986.0,0.0663
985.0,0.0658
984.0,0.0646
983.0,0.0612
982.0,0.0612
981.0,0.0601
980.0,0.0591
979.0,0.0603
978.0,0.0605
977.0,0.057999999999999996
976.0,0.059500000000000004
975.0,0.0573
974.0,0.058
973.0,0.0557
972.0,0.0554
971.0,0.0546
970.0,0.0534
969.0,0.0527
968.0,0.0526
967.0,0.0517
966.0,0.0531
965.0,0.053200000000000004
964.0,0.0527
963.0,0.054
962.0,0.0545
961.0,0.0552
960.0,0.0581
959.0,0.0588
958.0,0.061
957.0,0.0628
956.0,0.064
955.0,0.0648
954.0,0.0686
953.0,0.0684
952.0,0.0711
951.0,0.0718
950.0,0.0731
949.0,0.0752
948.0,0.0765
947.0,0.0759
946.0,0.0755
945.0,0.07730000000000001
944.0,0.077
943.0,0.0757
942.0,0.0753
941.0,0.0755
940.0,0.076
939.0,0.0756
938.0,0.0759
937.0,0.075
936.0,0.0771
935.0,0.0777
934.0,0.0784
933.0,0.0787
932.0,0.0786
931.0,0.081
930.0,0.0811
929.0,0.0816
928.0,0.0841
927.0,0.0855
926.0,0.0856
925.0,0.0861
924.0,0.0853
923.0,0.0853
922.0,0.0849
921.0,0.0843
920.0,0.0838
919.0,0.08360000000000001
918.0,0.0811
917.0,0.0784
916.0,0.0771
915.0,0.0745
914.0,0.0731
913.0,0.071
912.0,0.0689
911.0,0.0649
910.0,0.0639
909.0,0.0611
908.0,0.058
907.0,0.0556
906.0,0.056
905.0,0.0525
904.0,0.0521
903.0,0.0511
902.0,0.0493
901.0,0.0503
900.0,0.049
899.0,0.0494
898.0,0.0505
897.0,0.0505
896.0,0.0518
895.0,0.0508
894.0,0.0527
893.0,0.0555
892.0,0.0561
891.0,0.0601
890.0,0.0625
889.0,0.0669
888.0,0.0685
887.0,0.0723
886.0,0.0771
885.0,0.0813
884.0,0.0853
883.0,0.0869
882.0,0.0893
881.0,0.0915
880.0,0.091
879.0,0.0894
878.0,0.0859
877.0,0.0834
876.0,0.0768
875.0,0.0723
874.0,0.0684
873.0,0.0667
872.0,0.0629
871.0,0.0622
870.0,0.0604
869.0,0.0594
868.0,0.0592
867.0,0.0576
866.0,0.0582
865.0,0.0583
864.0,0.057
863.0,0.0574
862.0,0.058
861.0,0.0578
860.0,0.0571
859.0,0.0591
858.0,0.058499999999999996
857.0,0.060700000000000004
856.0,0.0615
855.0,0.0616
854.0,0.0628
853.0,0.0647
852.0,0.0645
851.0,0.0669
850.0,0.0683
849.0,0.0689
848.0,0.0727
847.0,0.0737
846.0,0.0753
845.0,0.0769
844.0,0.0802
843.0,0.08310000000000001
842.0,0.084
841.0,0.0863
840.0,0.0883
839.0,0.0904
838.0,0.0924
837.0,0.0934
836.0,0.0925
835.0,0.0912
834.0,0.0913
833.0,0.0909
832.0,0.0922
831.0,0.0903
830.0,0.0911
829.0,0.0878
828.0,0.0876
827.0,0.0835
826.0,0.0807
825.0,0.075
824.0,0.0706
823.0,0.0673
822.0,0.0668
821.0,0.065
820.0,0.0628
819.0,0.062
818.0,0.0626
817.0,0.0614
816.0,0.0617
815.0,0.0605
814.0,0.061
813.0,0.0612
812.0,0.0626
811.0,0.06269999999999999
810.0,0.0619
809.0,0.0644
808.0,0.0645
807.0,0.0656
806.0,0.0668
805.0,0.0678
804.0,0.068
803.0,0.0697
802.0,0.0678
801.0,0.0668
800.0,0.0675
799.0,0.0639
798.0,0.0621
797.0,0.0604
796.0,0.0593
795.0,0.0593
794.0,0.0564
793.0,0.0563
792.0,0.0544
791.0,0.0542
790.0,0.0525
789.0,0.053
788.0,0.0516
787.0,0.0528
786.0,0.0516
785.0,0.0524
784.0,0.0528
783.0,0.0522
782.0,0.050499999999999996
781.0,0.0514
780.0,0.051
779.0,0.0522
778.0,0.0509
777.0,0.0528
776.0,0.0536
775.0,0.0524
774.0,0.052199999999999996
773.0,0.0535
772.0,0.054400000000000004
771.0,0.0548
770.0,0.0546
769.0,0.0538
768.0,0.0555
767.0,0.056100000000000004
766.0,0.0544
765.0,0.0547
764.0,0.0567
763.0,0.0557
762.0,0.0569
761.0,0.0576
760.0,0.0591
759.0,0.0612
758.0,0.0614
757.0,0.0635
756.0,0.064
755.0,0.0653
754.0,0.0647
753.0,0.067
752.0,0.0658
751.0,0.068
750.0,0.067
749.0,0.0679
748.0,0.0695
747.0,0.0693
746.0,0.068
745.0,0.06709999999999999
744.0,0.0684
743.0,0.0662
742.0,0.0667
741.0,0.0663
740.0,0.0675
739.0,0.0679
738.0,0.0678
737.0,0.0677
736.0,0.0697
735.0,0.0704
734.0,0.0713
733.0,0.0718
732.0,0.0726
731.0,0.0721
730.0,0.0733
729.0,0.0733
728.0,0.0723
727.0,0.0745
726.0,0.0727
725.0,0.075
724.0,0.0744
723.0,0.0753
722.0,0.0761
721.0,0.0766
720.0,0.0766
719.0,0.0767
718.0,0.0773
717.0,0.0785
716.0,0.07970000000000001
715.0,0.0788
714.0,0.0808
713.0,0.0803
712.0,0.0818
711.0,0.0823
710.0,0.0808
709.0,0.082
708.0,0.0837
707.0,0.0845
706.0,0.0851
705.0,0.0852
704.0,0.0853
703.0,0.0865
702.0,0.0867
701.0,0.0886
700.0,0.0896
699.0,0.0901
698.0,0.092
697.0,0.0921
696.0,0.0937
695.0,0.0954
694.0,0.0945
693.0,0.0971
692.0,0.09860000000000001
691.0,0.0995
690.0,0.1002
689.0,0.101
688.0,0.1001
687.0,0.1012
686.0,0.1039
685.0,0.1045
684.0,0.1051
683.0,0.107
682.0,0.1071
681.0,0.108
680.0,0.1089
679.0,0.1088
678.0,0.10779999999999999
677.0,0.1082
676.0,0.1101
675.0,0.1094
674.0,0.1107
673.0,0.1102
672.0,0.1117
671.0,0.111
670.0,0.1126
669.0,0.1113
668.0,0.112
667.0,0.1119
666.0,0.1117
665.0,0.1137
664.0,0.11359999999999999
663.0,0.1151
662.0,0.1148
661.0,0.1152
660.0,0.1163
659.0,0.1153
658.0,0.1168
657.0,0.1171
656.0,0.1181
655.0,0.1185
654.0,0.1177
653.0,0.1182
652.0,0.1192
651.0,0.1179
650.0,0.1187
