Created as New Dataset,Sample 004 By CHEM 370 Date Monday, March 02 2020
cm-1,A
4000.0,-0.0004000000000000001
3999.0,0.0015999999999999999
3998.0,0.0010999999999999998
3997.0,9.999999999999994e-5
3996.0,0.0010999999999999998
3995.0,0.0015999999999999999
3994.0,0.0010999999999999998
3993.0,9.999999999999994e-5
3992.0,0.0
3991.0,-0.0005
3990.0,0.0005
3989.0,0.001
3988.0,0.0015999999999999999
3987.0,9.999999999999994e-5
3986.0,0.0006
3985.0,-0.0004000000000000001
3984.0,0.0
3983.0,0.0015
3982.0,0.0015
3981.0,0.0010999999999999998
3980.0,-0.0004000000000000001
3979.0,0.0015999999999999999
3978.0,0.0006
3977.0,0.0015999999999999999
3976.0,9.999999999999994e-5
3975.0,-0.0004000000000000001
3974.0,-0.0004000000000000001
3973.0,0.0010999999999999998
3972.0,9.999999999999994e-5
3971.0,0.0010999999999999998
3970.0,0.0015999999999999999
3969.0,0.0005
3968.0,0.0015
3967.0,-0.0005
3966.0,0.0015
3965.0,0.0014
3964.0,0.0009
3963.0,-0.0006000000000000001
3962.0,0.0005
3961.0,0.0015
3960.0,0.001
3959.0,0.0
3958.0,0.0005
3957.0,0.001
3956.0,9.999999999999994e-5
3955.0,9.999999999999994e-5
3954.0,9.999999999999994e-5
3953.0,0.0
3952.0,0.0
3951.0,-9.999999999999999e-5
3950.0,0.0004
3949.0,-9.999999999999999e-5
3948.0,0.0004
3947.0,-9.999999999999999e-5
3946.0,-9.999999999999999e-5
3945.0,0.0004
3944.0,0.0004
3943.0,0.0007999999999999999
3942.0,0.0013
3941.0,-0.0007000000000000001
3940.0,-0.0007000000000000001
3939.0,-9.999999999999999e-5
3938.0,0.0009
3937.0,0.0004
3936.0,-0.0006000000000000001
3935.0,-0.0006000000000000001
3934.0,0.0009
3933.0,-0.0006000000000000001
3932.0,-0.0006000000000000001
3931.0,0.0007999999999999999
3930.0,0.0007999999999999999
3929.0,-0.00020000000000000004
3928.0,0.0003
3927.0,-0.0007000000000000001
3926.0,0.0013
3925.0,0.0013
3924.0,-0.00020000000000000004
3923.0,0.0007999999999999999
3922.0,0.0003
3921.0,0.0013
3920.0,-0.0007000000000000001
3919.0,0.0007999999999999999
3918.0,0.0003
3917.0,0.0007999999999999999
3916.0,0.0007999999999999999
3915.0,0.0003
3914.0,0.0013
3913.0,0.0013
3912.0,0.0013
3911.0,-0.0007000000000000001
3910.0,0.0012000000000000001
3909.0,0.0003
3908.0,0.0003
3907.0,-0.0007000000000000001
3906.0,0.0014
3905.0,0.0009
3904.0,-0.00020000000000000004
3903.0,-0.00020000000000000004
3902.0,0.0007999999999999999
3901.0,0.0003
3900.0,-0.00020000000000000004
3899.0,0.0013
3898.0,0.0007999999999999999
3897.0,-0.00020000000000000004
3896.0,0.0007999999999999999
3895.0,-0.00020000000000000004
3894.0,0.0007999999999999999
3893.0,0.0002
3892.0,0.0012000000000000001
3891.0,0.0002
3890.0,-0.00030000000000000003
3889.0,-0.00030000000000000003
3888.0,-0.00030000000000000003
3887.0,0.0007999999999999999
3886.0,-0.00020000000000000004
3885.0,0.0007999999999999999
3884.0,-0.00020000000000000004
3883.0,-0.00020000000000000004
3882.0,0.0007999999999999999
3881.0,0.0007999999999999999
3880.0,-0.0007000000000000001
3879.0,-0.0008
3878.0,0.0012000000000000001
3877.0,-0.0008
3876.0,0.0002
3875.0,-0.00030000000000000003
3874.0,-0.00030000000000000003
3873.0,0.0012000000000000001
3872.0,0.0012000000000000001
3871.0,-0.0008
3870.0,0.0013
3869.0,0.0003
3868.0,0.0013
3867.0,-0.00020000000000000004
3866.0,-0.0007000000000000001
3865.0,-0.0007000000000000001
3864.0,0.0003
3863.0,0.0007999999999999999
3862.0,0.0013
3861.0,0.0003
3860.0,0.0007999999999999999
3859.0,0.0007
3858.0,-0.00030000000000000003
3857.0,0.0007
3856.0,0.0012000000000000001
3855.0,0.0007
3854.0,0.0012000000000000001
3853.0,-0.00030000000000000003
3852.0,-0.0008
3851.0,0.0012000000000000001
3850.0,0.0007
3849.0,-0.0008
3848.0,-0.00030000000000000003
3847.0,-0.0008
3846.0,0.0002
3845.0,-0.0004
3844.0,-0.0009
3843.0,0.0001
3842.0,-0.0004
3841.0,0.0006000000000000001
3840.0,0.0006000000000000001
3839.0,0.0007
3838.0,0.0002
3837.0,0.0007
3836.0,0.0007
3835.0,-0.00030000000000000003
3834.0,0.0002
3833.0,0.0013
3832.0,-0.00020000000000000004
3831.0,0.0013
3830.0,0.0003
3829.0,-0.00020000000000000004
3828.0,-0.0008
3827.0,0.0012000000000000001
3826.0,-0.00030000000000000003
3825.0,-0.0008
3824.0,0.0007
3823.0,-0.0008
3822.0,0.0003
3821.0,0.0007999999999999999
3820.0,0.0012000000000000001
3819.0,-0.0008
3818.0,-0.0009
3817.0,-0.0009
3816.0,0.0001
3815.0,-0.0008
3814.0,0.0012000000000000001
3813.0,0.0003
3812.0,-0.00020000000000000004
3811.0,0.0013
3810.0,0.0007999999999999999
3809.0,0.0007
3808.0,0.0002
3807.0,-0.00030000000000000003
3806.0,0.0012000000000000001
3805.0,0.0012000000000000001
3804.0,-0.00030000000000000003
3803.0,-0.0008
3802.0,-0.0008
3801.0,0.0013
3800.0,-0.00020000000000000004
3799.0,0.0013
3798.0,-0.0008
3797.0,-0.0008
3796.0,-0.00030000000000000003
3795.0,0.0013
3794.0,0.0003
3793.0,-0.00020000000000000004
3792.0,-0.00020000000000000004
3791.0,0.0007999999999999999
3790.0,0.0003
3789.0,0.0003
3788.0,0.0007999999999999999
3787.0,0.0003
3786.0,0.0007999999999999999
3785.0,-0.00020000000000000004
3784.0,0.0002
3783.0,-0.00030000000000000003
3782.0,-0.0008
3781.0,0.0013
3780.0,-0.00020000000000000004
3779.0,0.0003
3778.0,0.0003
3777.0,-0.0007000000000000001
3776.0,0.0003
3775.0,-0.00030000000000000003
3774.0,0.0012000000000000001
3773.0,-0.0007000000000000001
3772.0,0.0003
3771.0,0.0007999999999999999
3770.0,0.0007
3769.0,0.0012000000000000001
3768.0,-0.00030000000000000003
3767.0,0.0002
3766.0,0.0007
3765.0,0.0002
3764.0,-0.0008
3763.0,0.0002
3762.0,0.0012000000000000001
3761.0,0.0007
3760.0,-0.00020000000000000004
3759.0,0.0003
3758.0,-0.00020000000000000004
3757.0,0.0003
3756.0,-0.0007000000000000001
3755.0,0.0003
3754.0,0.0003
3753.0,0.0007
3752.0,-0.0008
3751.0,0.0002
3750.0,-0.00030000000000000003
3749.0,0.0002
3748.0,0.0012000000000000001
3747.0,-0.00020000000000000004
3746.0,-0.0006000000000000001
3745.0,0.0004
3744.0,0.0014
3743.0,-0.0006000000000000001
3742.0,0.0003
3741.0,0.0013
3740.0,0.0007999999999999999
3739.0,-0.0007000000000000001
3738.0,-0.00020000000000000004
3737.0,0.0007999999999999999
3736.0,-9.999999999999999e-5
3735.0,-0.0006000000000000001
3734.0,-9.999999999999999e-5
3733.0,0.0009
3732.0,0.0014
3731.0,-9.999999999999999e-5
3730.0,0.0004
3729.0,0.0013
3728.0,-0.00020000000000000004
3727.0,0.0003
3726.0,0.0013
3725.0,-0.00020000000000000004
3724.0,0.0013
3723.0,-0.0007000000000000001
3722.0,-0.0007000000000000001
3721.0,0.0007999999999999999
3720.0,0.0003
3719.0,0.0004
3718.0,0.0009
3717.0,0.0014
3716.0,0.0009
3715.0,0.0009
3714.0,-9.999999999999999e-5
3713.0,-9.999999999999999e-5
3712.0,0.0014
3711.0,-9.999999999999999e-5
3710.0,-9.999999999999999e-5
3709.0,0.0005
3708.0,0.001
3707.0,0.0005
3706.0,-9.999999999999999e-5
3705.0,-0.0006000000000000001
3704.0,-0.0006000000000000001
3703.0,-0.0006000000000000001
3702.0,0.0014
3701.0,0.0009
3700.0,0.0
3699.0,-0.0005
3698.0,0.0005
3697.0,0.001
3696.0,0.0006
3695.0,9.999999999999994e-5
3694.0,0.0007
3693.0,0.00019999999999999998
3692.0,0.0010999999999999998
3691.0,9.999999999999994e-5
3690.0,0.0010999999999999998
3689.0,-0.0004000000000000001
3688.0,0.0010999999999999998
3687.0,0.0007
3686.0,0.00019999999999999998
3685.0,0.00030000000000000003
3684.0,0.0013
3683.0,0.00039999999999999996
3682.0,0.00039999999999999996
3681.0,0.0005
3680.0,0.002
3679.0,0.0005
3678.0,0.0
3677.0,0.0006000000000000001
3676.0,0.0011
3675.0,0.0005
3674.0,0.0015
3673.0,0.0
3672.0,0.0016
3671.0,0.0021000000000000003
3670.0,0.0006000000000000001
3669.0,0.0016
3668.0,0.0021000000000000003
3667.0,0.0
3666.0,0.0021000000000000003
3665.0,0.0016
3664.0,0.0012
3663.0,0.0007999999999999999
3662.0,0.0023
3661.0,0.0002999999999999999
3660.0,0.00039999999999999996
3659.0,0.0014
3658.0,0.0009
3657.0,0.0025
3656.0,0.0011
3655.0,0.0021000000000000003
3654.0,0.0006000000000000001
3653.0,0.0006000000000000001
3652.0,0.0026
3651.0,0.0021000000000000003
3650.0,0.0017
3649.0,0.0027
3648.0,0.0007999999999999999
3647.0,0.0024000000000000002
3646.0,0.0009
3645.0,0.001
3644.0,0.001
3643.0,0.0025
3642.0,0.002
3641.0,0.0015
3640.0,0.0025
3639.0,0.0021
3638.0,0.0012000000000000001
3637.0,0.0018
3636.0,0.0013999999999999998
3635.0,0.0013999999999999998
3634.0,0.0035
3633.0,0.002
3632.0,0.0026
3631.0,0.0026
3630.0,0.0036
3629.0,0.0027
3628.0,0.0038
3627.0,0.0028
3626.0,0.0039
3625.0,0.0018999999999999998
3624.0,0.003
3623.0,0.0031
3622.0,0.004200000000000001
3621.0,0.0028
3620.0,0.0028
3619.0,0.0024
3618.0,0.0029
3617.0,0.004
3616.0,0.0026
3615.0,0.0037
3614.0,0.0048000000000000004
3613.0,0.0039
3612.0,0.004
3611.0,0.0046
3610.0,0.0031000000000000003
3609.0,0.0042
3608.0,0.0043
3607.0,0.0034000000000000002
3606.0,0.0056
3605.0,0.004200000000000001
3604.0,0.0049
3603.0,0.0045000000000000005
3602.0,0.0051
3601.0,0.004699999999999999
3600.0,0.0043
3599.0,0.0048000000000000004
3598.0,0.0044
3597.0,0.0055
3596.0,0.0047
3595.0,0.0068
3594.0,0.005
3593.0,0.005600000000000001
3592.0,0.0058
3591.0,0.0074
3590.0,0.0069
3589.0,0.006
3588.0,0.0071
3587.0,0.0077
3586.0,0.0074
3585.0,0.0071
3584.0,0.0077
3583.0,0.008400000000000001
3582.0,0.0066
3581.0,0.007299999999999999
3580.0,0.008400000000000001
3579.0,0.009000000000000001
3578.0,0.0081
3577.0,0.0082
3576.0,0.007899999999999999
3575.0,0.009500000000000001
3574.0,0.008199999999999999
3573.0,0.009300000000000001
3572.0,0.008499999999999999
3571.0,0.0102
3570.0,0.0093
3569.0,0.0099
3568.0,0.009
3567.0,0.009099999999999999
3566.0,0.0108
3565.0,0.010400000000000001
3564.0,0.0091
3563.0,0.011300000000000001
3562.0,0.0105
3561.0,0.0112
3560.0,0.0109
3559.0,0.0111
3558.0,0.0103
3557.0,0.012
3556.0,0.0126
3555.0,0.0108
3554.0,0.012
3553.0,0.012700000000000001
3552.0,0.011899999999999999
3551.0,0.0131
3550.0,0.0132
3549.0,0.0129
3548.0,0.013600000000000001
3547.0,0.0143
3546.0,0.013
3545.0,0.0127
3544.0,0.0139
3543.0,0.013000000000000001
3542.0,0.0132
3541.0,0.0149
3540.0,0.0141
3539.0,0.0139
3538.0,0.014100000000000001
3537.0,0.014799999999999999
3536.0,0.014499999999999999
3535.0,0.0156
3534.0,0.0159
3533.0,0.0161
3532.0,0.015799999999999998
3531.0,0.0175
3530.0,0.0157
3529.0,0.0169
3528.0,0.0181
3527.0,0.0163
3526.0,0.018500000000000003
3525.0,0.0168
3524.0,0.017499999999999998
3523.0,0.019200000000000002
3522.0,0.0184
3521.0,0.0191
3520.0,0.0198
3519.0,0.0185
3518.0,0.0193
3517.0,0.02
3516.0,0.0197
3515.0,0.0194
3514.0,0.0206
3513.0,0.019799999999999998
3512.0,0.0205
3511.0,0.0212
3510.0,0.022000000000000002
3509.0,0.0223
3508.0,0.020999999999999998
3507.0,0.0212
3506.0,0.0219
3505.0,0.0211
3504.0,0.0228
3503.0,0.022
3502.0,0.0217
3501.0,0.0219
3500.0,0.0226
3499.0,0.0223
3498.0,0.0245
3497.0,0.022699999999999998
3496.0,0.0234
3495.0,0.0231
3494.0,0.0248
3493.0,0.024
3492.0,0.0257
3491.0,0.025500000000000002
3490.0,0.0247
3489.0,0.0263
3488.0,0.0249
3487.0,0.026600000000000002
3486.0,0.0258
3485.0,0.0255
3484.0,0.0252
3483.0,0.0274
3482.0,0.0271
3481.0,0.0258
3480.0,0.027
3479.0,0.0277
3478.0,0.0264
3477.0,0.027
3476.0,0.0282
3475.0,0.0279
3474.0,0.0271
3473.0,0.027299999999999998
3472.0,0.029400000000000003
3471.0,0.0276
3470.0,0.0292
3469.0,0.0293
3468.0,0.029500000000000002
3467.0,0.0302
3466.0,0.0304
3465.0,0.0296
3464.0,0.0298
3463.0,0.0305
3462.0,0.0297
3461.0,0.0308
3460.0,0.0299
3459.0,0.0301
3458.0,0.0307
3457.0,0.0309
3456.0,0.032
3455.0,0.030699999999999998
3454.0,0.0303
3453.0,0.0319
3452.0,0.032
3451.0,0.0327
3450.0,0.0328
3449.0,0.033
3448.0,0.031099999999999996
3447.0,0.0328
3446.0,0.0334
3445.0,0.033
3444.0,0.0331
3443.0,0.0332
3442.0,0.0334
3441.0,0.032
3440.0,0.0332
3439.0,0.0328
3438.0,0.0335
3437.0,0.0332
3436.0,0.0348
3435.0,0.0329
3434.0,0.035
3433.0,0.0336
3432.0,0.0342
3431.0,0.0338
3430.0,0.0348
3429.0,0.0339
3428.0,0.0349
3427.0,0.035500000000000004
3426.0,0.0336
3425.0,0.0357
3424.0,0.0338
3423.0,0.0354
3422.0,0.0345
3421.0,0.0345
3420.0,0.0346
3419.0,0.0362
3418.0,0.0343
3417.0,0.0359
3416.0,0.0365
3415.0,0.0366
3414.0,0.0347
3413.0,0.0347
3412.0,0.0368
3411.0,0.0353
3410.0,0.0348
3409.0,0.0354
3408.0,0.036
3407.0,0.0365
3406.0,0.0356
3405.0,0.0366
3404.0,0.0357
3403.0,0.0373
3402.0,0.0374
3401.0,0.0374
3400.0,0.0359
3399.0,0.0354
3398.0,0.0364
3397.0,0.0358
3396.0,0.0368
3395.0,0.0358
3394.0,0.0359
3393.0,0.0354
3392.0,0.0374
3391.0,0.0358
3390.0,0.0373
3389.0,0.037200000000000004
3388.0,0.0362
3387.0,0.0367
3386.0,0.0352
3385.0,0.0352
3384.0,0.0366
3383.0,0.0356
3382.0,0.0361
3381.0,0.0361
3380.0,0.0361
3379.0,0.0371
3378.0,0.0366
3377.0,0.034999999999999996
3376.0,0.0355
3375.0,0.037
3374.0,0.0355
3373.0,0.0365
3372.0,0.036
3371.0,0.0365
3370.0,0.0364
3369.0,0.0359
3368.0,0.0358
3367.0,0.0367
3366.0,0.0346
3365.0,0.0361
3364.0,0.0365
3363.0,0.0364
3362.0,0.0343
3361.0,0.0352
3360.0,0.0356
3359.0,0.0346
3358.0,0.0345
3357.0,0.0339
3356.0,0.0349
3355.0,0.0338
3354.0,0.0347
3353.0,0.0341
3352.0,0.0335
3351.0,0.0349
3350.0,0.0348
3349.0,0.0337
3348.0,0.0351
3347.0,0.0346
3346.0,0.0335
3345.0,0.035
3344.0,0.0339
3343.0,0.032799999999999996
3342.0,0.0337
3341.0,0.0335
3340.0,0.0329
3339.0,0.0333
3338.0,0.0327
3337.0,0.0336
3336.0,0.034
3335.0,0.0324
3334.0,0.033800000000000004
3333.0,0.0321
3332.0,0.0315
3331.0,0.0329
3330.0,0.0327
3329.0,0.0326
3328.0,0.031
3327.0,0.0313
3326.0,0.030699999999999998
3325.0,0.0316
3324.0,0.032
3323.0,0.030399999999999996
3322.0,0.0323
3321.0,0.0306
3320.0,0.0305
3319.0,0.0319
3318.0,0.0307
3317.0,0.0301
3316.0,0.03
3315.0,0.0294
3314.0,0.0292
3313.0,0.0311
3312.0,0.031
3311.0,0.0304
3310.0,0.0293
3309.0,0.0296
3308.0,0.028499999999999998
3307.0,0.0288
3306.0,0.0291
3305.0,0.0296
3304.0,0.030000000000000002
3303.0,0.0285
3302.0,0.027899999999999998
3301.0,0.0288
3300.0,0.0286
3299.0,0.028900000000000002
3298.0,0.0293
3297.0,0.0271
3296.0,0.0284
3295.0,0.0287
3294.0,0.0266
3293.0,0.0284
3292.0,0.027800000000000002
3291.0,0.0266
3290.0,0.028
3289.0,0.0269
3288.0,0.0258
3287.0,0.0257
3286.0,0.0255
3285.0,0.0274
3284.0,0.0267
3283.0,0.026600000000000002
3282.0,0.0269
3281.0,0.0248
3280.0,0.026600000000000002
3279.0,0.0255
3278.0,0.0253
3277.0,0.0257
3276.0,0.025
3275.0,0.023899999999999998
3274.0,0.0257
3273.0,0.0246
3272.0,0.024
3271.0,0.025400000000000002
3270.0,0.0243
3269.0,0.0237
3268.0,0.0246
3267.0,0.0229
3266.0,0.0238
3265.0,0.0246
3264.0,0.0244
3263.0,0.0237
3262.0,0.0235
3261.0,0.0229
3260.0,0.023700000000000002
3259.0,0.0226
3258.0,0.0225
3257.0,0.0233
3256.0,0.023200000000000002
3255.0,0.022
3254.0,0.0224
3253.0,0.0212
3252.0,0.0221
3251.0,0.0215
3250.0,0.0223
3249.0,0.0211
3248.0,0.0214
3247.0,0.0217
3246.0,0.0195
3245.0,0.0194
3244.0,0.019299999999999998
3243.0,0.0202
3242.0,0.021
3241.0,0.0189
3240.0,0.0197
3239.0,0.0196
3238.0,0.0194
3237.0,0.018199999999999997
3236.0,0.02
3235.0,0.0188
3234.0,0.0187
3233.0,0.0186
3232.0,0.0179
3231.0,0.0177
3230.0,0.018600000000000002
3229.0,0.0179
3228.0,0.0177
3227.0,0.0166
3226.0,0.0174
3225.0,0.0173
3224.0,0.0181
3223.0,0.018000000000000002
3222.0,0.0163
3221.0,0.0156
3220.0,0.016900000000000002
3219.0,0.0157
3218.0,0.015
3217.0,0.016900000000000002
3216.0,0.015300000000000001
3215.0,0.016300000000000002
3214.0,0.015099999999999999
3213.0,0.0154
3212.0,0.0153
3211.0,0.0151
3210.0,0.0155
3209.0,0.0143
3208.0,0.0146
3207.0,0.0155
3206.0,0.015300000000000001
3205.0,0.0142
3204.0,0.015
3203.0,0.0139
3202.0,0.0137
3201.0,0.0125
3200.0,0.0129
3199.0,0.0138
3198.0,0.0127
3197.0,0.014100000000000001
3196.0,0.0119
3195.0,0.0132
3194.0,0.013000000000000001
3193.0,0.011300000000000001
3192.0,0.0116
3191.0,0.0125
3190.0,0.0109
3189.0,0.0117
3188.0,0.010700000000000001
3187.0,0.0116
3186.0,0.0104
3185.0,0.012299999999999998
3184.0,0.0117
3183.0,0.0111
3182.0,0.009899999999999999
3181.0,0.0108
3180.0,0.0107
3179.0,0.0115
3178.0,0.0114
3177.0,0.0103
3176.0,0.011200000000000002
3175.0,0.0105
3174.0,0.0109
3173.0,0.0098
3172.0,0.0092
3171.0,0.009099999999999999
3170.0,0.01
3169.0,0.0094
3168.0,0.0093
3167.0,0.008199999999999999
3166.0,0.010100000000000001
3165.0,0.0095
3164.0,0.0094
3163.0,0.0098
3162.0,0.0097
3161.0,0.009600000000000001
3160.0,0.009500000000000001
3159.0,0.0089
3158.0,0.0078
3157.0,0.0082
3156.0,0.0086
3155.0,0.009000000000000001
3154.0,0.009000000000000001
3153.0,0.0079
3152.0,0.007299999999999999
3151.0,0.0082
3150.0,0.0071
3149.0,0.0085
3148.0,0.0064
3147.0,0.0068000000000000005
3146.0,0.006699999999999999
3145.0,0.0061
3144.0,0.007
3143.0,0.0079
3142.0,0.0058
3141.0,0.0068
3140.0,0.006200000000000001
3139.0,0.0067
3138.0,0.0066
3137.0,0.0056
3136.0,0.006
3135.0,0.0069
3134.0,0.0068000000000000005
3133.0,0.0052
3132.0,0.0072
3131.0,0.0058
3130.0,0.0052
3129.0,0.0062
3128.0,0.005600000000000001
3127.0,0.007
3126.0,0.0059
3125.0,0.0063
3124.0,0.0048
3123.0,0.006200000000000001
3122.0,0.0057
3121.0,0.0051
3120.0,0.0046
3119.0,0.0056
3118.0,0.0066
3117.0,0.006
3116.0,0.0055
3115.0,0.0054
3114.0,0.0049
3113.0,0.0043
3112.0,0.0043
3111.0,0.0062
3110.0,0.0042
3109.0,0.0057
3108.0,0.0042
3107.0,0.004699999999999999
3106.0,0.0042
3105.0,0.0042
3104.0,0.0057
3103.0,0.0052
3102.0,0.0062
3101.0,0.0057
3100.0,0.0042
3099.0,0.0041
3098.0,0.0045000000000000005
3097.0,0.004
3096.0,0.006
3095.0,0.004
3094.0,0.005
3093.0,0.005
3092.0,0.005
3091.0,0.004
3090.0,0.006
3089.0,0.004
3088.0,0.006
3087.0,0.006
3086.0,0.0055
3085.0,0.0045000000000000005
3084.0,0.006
3083.0,0.004
3082.0,0.0055
3081.0,0.004
3080.0,0.0045000000000000005
3079.0,0.006
3078.0,0.006
3077.0,0.006
3076.0,0.006
3075.0,0.0055
3074.0,0.005
3073.0,0.0045000000000000005
3072.0,0.004
3071.0,0.0045000000000000005
3070.0,0.0045000000000000005
3069.0,0.005600000000000001
3068.0,0.0041
3067.0,0.0051
3066.0,0.0051
3065.0,0.004699999999999999
3064.0,0.0042
3063.0,0.0057
3062.0,0.0043
3061.0,0.0048000000000000004
3060.0,0.0053
3059.0,0.004699999999999999
3058.0,0.004699999999999999
3057.0,0.0057
3056.0,0.0061
3055.0,0.0061
3054.0,0.0061
3053.0,0.0046
3052.0,0.0061
3051.0,0.0041
3050.0,0.0062
3049.0,0.0058
3048.0,0.0053
3047.0,0.0058
3046.0,0.005900000000000001
3045.0,0.005900000000000001
3044.0,0.005900000000000001
3043.0,0.0044
3042.0,0.0065
3041.0,0.004999999999999999
3040.0,0.0056
3039.0,0.0051
3038.0,0.0046
3037.0,0.0046
3036.0,0.0045
3035.0,0.004999999999999999
3034.0,0.0055
3033.0,0.0044
3032.0,0.0054
3031.0,0.0064
3030.0,0.0054
3029.0,0.0055
3028.0,0.006
3027.0,0.0066
3026.0,0.0051
3025.0,0.0052
3024.0,0.0063
3023.0,0.0063
3022.0,0.0059
3021.0,0.006500000000000001
3020.0,0.0062
3019.0,0.0068000000000000005
3018.0,0.006999999999999999
3017.0,0.006200000000000001
3016.0,0.0063999999999999994
3015.0,0.0066
3014.0,0.0073
3013.0,0.0066
3012.0,0.0068
3011.0,0.007
3010.0,0.0092
3009.0,0.008
3008.0,0.007699999999999999
3007.0,0.0089
3006.0,0.0092
3005.0,0.009
3004.0,0.0103
3003.0,0.0097
3002.0,0.01
3001.0,0.012
3000.0,0.012
2999.0,0.013000000000000001
2998.0,0.0131
2997.0,0.0137
2996.0,0.0149
2995.0,0.0147
2994.0,0.0166
2993.0,0.017
2992.0,0.0181
2991.0,0.0198
2990.0,0.0201
2989.0,0.020399999999999998
2988.0,0.0239
2987.0,0.0245
2986.0,0.0261
2985.0,0.0284
2984.0,0.0307
2983.0,0.0327
2982.0,0.0337
2981.0,0.0347
2980.0,0.0388
2979.0,0.0407
2978.0,0.0412
2977.0,0.0435
2976.0,0.044199999999999996
2975.0,0.0463
2974.0,0.0472
2973.0,0.0499
2972.0,0.0499
2971.0,0.0521
2970.0,0.0516
2969.0,0.0524
2968.0,0.0515
2967.0,0.051
2966.0,0.0524
2965.0,0.0518
2964.0,0.0506
2963.0,0.0515
2962.0,0.0518
2961.0,0.0507
2960.0,0.0506
2959.0,0.0516
2958.0,0.0521
2957.0,0.0522
2956.0,0.0503
2955.0,0.0519
2954.0,0.0515
2953.0,0.0521
2952.0,0.0516
2951.0,0.0521
2950.0,0.0515
2949.0,0.052
2948.0,0.0504
2947.0,0.0508
2946.0,0.0503
2945.0,0.0514
2944.0,0.051
2943.0,0.0526
2942.0,0.0528
2941.0,0.0526
2940.0,0.0514
2939.0,0.0533
2938.0,0.0538
2937.0,0.0538
2936.0,0.0547
2935.0,0.0546
2934.0,0.0545
2933.0,0.0559
2932.0,0.0553
2931.0,0.0567
2930.0,0.056
2929.0,0.0568
2928.0,0.0561
2927.0,0.0573
2926.0,0.057
2925.0,0.0576
2924.0,0.0582
2923.0,0.0573
2922.0,0.0569
2921.0,0.0589
2920.0,0.057
2919.0,0.057
2918.0,0.057
2917.0,0.0571
2916.0,0.0586
2915.0,0.0582
2914.0,0.0593
2913.0,0.0579
2912.0,0.0581
2911.0,0.0578
2910.0,0.06
2909.0,0.0592
2908.0,0.0594
2907.0,0.0587
2906.0,0.0589
2905.0,0.059199999999999996
2904.0,0.0599
2903.0,0.0612
2902.0,0.0604
2901.0,0.0622
2900.0,0.0614
2899.0,0.0626
2898.0,0.0629
2897.0,0.0631
2896.0,0.0634
2895.0,0.0627
2894.0,0.0636
2893.0,0.064
2892.0,0.064
2891.0,0.0634
2890.0,0.0639
2889.0,0.0644
2888.0,0.0659
2887.0,0.0664
2886.0,0.067
2885.0,0.0681
2884.0,0.0687
2883.0,0.0693
2882.0,0.0704
2881.0,0.0706
2880.0,0.0703
2879.0,0.0703
2878.0,0.0709
2877.0,0.0733
2876.0,0.0716
2875.0,0.0729
2874.0,0.0719
2873.0,0.0728
2872.0,0.0735
2871.0,0.072
2870.0,0.0704
2869.0,0.0705
2868.0,0.07050000000000001
2867.0,0.0693
2866.0,0.0679
2865.0,0.0659
2864.0,0.0638
2863.0,0.0621
2862.0,0.0609
2861.0,0.058
2860.0,0.0557
2859.0,0.0548
2858.0,0.0524
2857.0,0.052
2856.0,0.0487
2855.0,0.0475
2854.0,0.0448
2853.0,0.0448
2852.0,0.0418
2851.0,0.041800000000000004
2850.0,0.0409
2849.0,0.0382
2848.0,0.0385
2847.0,0.0369
2846.0,0.0363
2845.0,0.0334
2844.0,0.0331
2843.0,0.0333
2842.0,0.0325
2841.0,0.0313
2840.0,0.0306
2839.0,0.03
2838.0,0.0299
2837.0,0.0293
2836.0,0.0287
2835.0,0.0271
2834.0,0.028
2833.0,0.0269
2832.0,0.0258
2831.0,0.0246
2830.0,0.024
2829.0,0.0239
2828.0,0.0233
2827.0,0.0227
2826.0,0.0217
2825.0,0.0207
2824.0,0.0208
2823.0,0.0203
2822.0,0.0199
2821.0,0.0195
2820.0,0.0191
2819.0,0.0197
2818.0,0.0189
2817.0,0.019
2816.0,0.0182
2815.0,0.0184
2814.0,0.0181
2813.0,0.0183
2812.0,0.0165
2811.0,0.0172
2810.0,0.016900000000000002
2809.0,0.0171
2808.0,0.0158
2807.0,0.014599999999999998
2806.0,0.0163
2805.0,0.015
2804.0,0.0137
2803.0,0.0144
2802.0,0.0146
2801.0,0.0138
2800.0,0.0126
2799.0,0.012799999999999999
2798.0,0.013
2797.0,0.012199999999999999
2796.0,0.013500000000000002
2795.0,0.0133
2794.0,0.0116
2793.0,0.0114
2792.0,0.010599999999999998
2791.0,0.012400000000000001
2790.0,0.0118
2789.0,0.011600000000000001
2788.0,0.0109
2787.0,0.011800000000000001
2786.0,0.0106
2785.0,0.009399999999999999
2784.0,0.0093
2783.0,0.0101
2782.0,0.011
2781.0,0.0093
2780.0,0.0092
2779.0,0.010499999999999999
2778.0,0.008400000000000001
2777.0,0.008299999999999998
2776.0,0.008199999999999999
2775.0,0.010100000000000001
2774.0,0.0095
2773.0,0.009899999999999999
2772.0,0.0089
2771.0,0.0078000000000000005
2770.0,0.0088
2769.0,0.0097
2768.0,0.0091
2767.0,0.008
2766.0,0.0085
2765.0,0.0073999999999999995
2764.0,0.009399999999999999
2763.0,0.0073
2762.0,0.0073
2761.0,0.008700000000000001
2760.0,0.008700000000000001
2759.0,0.0077
2758.0,0.008700000000000001
2757.0,0.008700000000000001
2756.0,0.0077
2755.0,0.0092
2754.0,0.0081
2753.0,0.0077
2752.0,0.008700000000000001
2751.0,0.0092
2750.0,0.0077
2749.0,0.0081
2748.0,0.0070999999999999995
2747.0,0.0070999999999999995
2746.0,0.0091
2745.0,0.0081
2744.0,0.0086
2743.0,0.0085
2742.0,0.009000000000000001
2741.0,0.009000000000000001
2740.0,0.009000000000000001
2739.0,0.009000000000000001
2738.0,0.008900000000000002
2737.0,0.006900000000000001
2736.0,0.008400000000000001
2735.0,0.008900000000000002
2734.0,0.006900000000000001
2733.0,0.006900000000000001
2732.0,0.008799999999999999
2731.0,0.008799999999999999
2730.0,0.007299999999999999
2729.0,0.0078
2728.0,0.0077
2727.0,0.0072
2726.0,0.0077
2725.0,0.0087
2724.0,0.0071
2723.0,0.0071
2722.0,0.0065
2721.0,0.0069
2720.0,0.0064
2719.0,0.0083
2718.0,0.0077
2717.0,0.0072
2716.0,0.007600000000000001
2715.0,0.007
2714.0,0.0074
2713.0,0.007299999999999999
2712.0,0.0077
2711.0,0.0056
2710.0,0.0060999999999999995
2709.0,0.0055
2708.0,0.0065
2707.0,0.0069
2706.0,0.0074
2705.0,0.0053
2704.0,0.0052
2703.0,0.0066
2702.0,0.007
2701.0,0.0055
2700.0,0.0063999999999999994
2699.0,0.0059
2698.0,0.0058
2697.0,0.0063
2696.0,0.0047
2695.0,0.0066
2694.0,0.0055
2693.0,0.0054
2692.0,0.0058
2691.0,0.0062
2690.0,0.0042
2689.0,0.0051
2688.0,0.006
2687.0,0.0049
2686.0,0.004399999999999999
2685.0,0.0037999999999999996
2684.0,0.005299999999999999
2683.0,0.0052
2682.0,0.0037
2681.0,0.0046
2680.0,0.0040999999999999995
2679.0,0.004999999999999999
2678.0,0.0055
2677.0,0.0034000000000000002
2676.0,0.0053
2675.0,0.0043
2674.0,0.0038
2673.0,0.0033
2672.0,0.0042
2671.0,0.0031999999999999997
2670.0,0.0036000000000000003
2669.0,0.0051
2668.0,0.003
2667.0,0.0035
2666.0,0.004
2665.0,0.005
2664.0,0.0035
2663.0,0.0039
2662.0,0.0029
2661.0,0.004399999999999999
2660.0,0.0038
2659.0,0.0038
2658.0,0.0028
2657.0,0.0033
2656.0,0.0043
2655.0,0.0048000000000000004
2654.0,0.0037
2653.0,0.0027
2652.0,0.0032
2651.0,0.0040999999999999995
2650.0,0.0046
2649.0,0.0036
2648.0,0.0031
2647.0,0.0040999999999999995
2646.0,0.0031
2645.0,0.0026
2644.0,0.0031
2643.0,0.0045000000000000005
2642.0,0.003
2641.0,0.004
2640.0,0.003
2639.0,0.0035
2638.0,0.0025
2637.0,0.0034
2636.0,0.0034
2635.0,0.0039
2634.0,0.004399999999999999
2633.0,0.004399999999999999
2632.0,0.0039
2631.0,0.004399999999999999
2630.0,0.0039
2629.0,0.0024
2628.0,0.0039
2627.0,0.0029
2626.0,0.0043
2625.0,0.0037
2624.0,0.0032
2623.0,0.0032
2622.0,0.0037
2621.0,0.0043
2620.0,0.0038
2619.0,0.0022
2618.0,0.0032
2617.0,0.004200000000000001
2616.0,0.004200000000000001
2615.0,0.0040999999999999995
2614.0,0.004200000000000001
2613.0,0.0027
2612.0,0.0036
2611.0,0.0021
2610.0,0.0040999999999999995
2609.0,0.0040999999999999995
2608.0,0.0032
2607.0,0.0032
2606.0,0.0037
2605.0,0.0037
2604.0,0.0031
2603.0,0.0040999999999999995
2602.0,0.0031
2601.0,0.0031
2600.0,0.0021
2599.0,0.0021
2598.0,0.0037
2597.0,0.0031
2596.0,0.0026
2595.0,0.0035
2594.0,0.0025
2593.0,0.003
2592.0,0.0021
2591.0,0.0026
2590.0,0.0021
2589.0,0.0036
2588.0,0.0035
2587.0,0.0025
2586.0,0.003
2585.0,0.0024
2584.0,0.0034
2583.0,0.004
2582.0,0.004
2581.0,0.002
2580.0,0.0034
2579.0,0.0039
2578.0,0.0034
2577.0,0.0018999999999999998
2576.0,0.0024
2575.0,0.0038
2574.0,0.0018999999999999998
2573.0,0.0034
2572.0,0.0034
2571.0,0.0024
2570.0,0.0024
2569.0,0.0029
2568.0,0.0039
2567.0,0.0029
2566.0,0.0033
2565.0,0.0038
2564.0,0.0028
2563.0,0.0023
2562.0,0.0028
2561.0,0.0039
2560.0,0.0039
2559.0,0.0018999999999999998
2558.0,0.0033
2557.0,0.0023
2556.0,0.0028
2555.0,0.0033
2554.0,0.0028
2553.0,0.0023
2552.0,0.0033
2551.0,0.0033
2550.0,0.0033
2549.0,0.0024
2548.0,0.0039
2547.0,0.0024
2546.0,0.0024
2545.0,0.0039
2544.0,0.0039
2543.0,0.0018999999999999998
2542.0,0.0034
2541.0,0.0025
2540.0,0.004
2539.0,0.0031
2538.0,0.0021
2537.0,0.0021
2536.0,0.0031
2535.0,0.0040999999999999995
2534.0,0.0036
2533.0,0.004
2532.0,0.004
2531.0,0.0035
2530.0,0.003
2529.0,0.0035
2528.0,0.002
2527.0,0.0035
2526.0,0.002
2525.0,0.004
2524.0,0.004
2523.0,0.004
2522.0,0.002
2521.0,0.0025
2520.0,0.0029
2519.0,0.0039
2518.0,0.0023
2517.0,0.0033
2516.0,0.0018
2515.0,0.0038
2514.0,0.0034
2513.0,0.0018999999999999998
2512.0,0.0018999999999999998
2511.0,0.0024
2510.0,0.0024
2509.0,0.0039
2508.0,0.0034
2507.0,0.0039
2506.0,0.0039
2505.0,0.0034
2504.0,0.0018
2503.0,0.0028
2502.0,0.0027
2501.0,0.0017000000000000001
2500.0,0.0018
2499.0,0.0038
2498.0,0.0038
2497.0,0.0033
2496.0,0.0028
2495.0,0.0018
2494.0,0.0038
2493.0,0.0018
2492.0,0.0039
2491.0,0.0023
2490.0,0.0033
2489.0,0.0027
2488.0,0.0027
2487.0,0.0027
2486.0,0.0027
2485.0,0.0022
2484.0,0.0022
2483.0,0.0022
2482.0,0.0022
2481.0,0.0021
2480.0,0.0021
2479.0,0.0022
2478.0,0.0017000000000000001
2477.0,0.0031
2476.0,0.0031
2475.0,0.002
2474.0,0.0035
2473.0,0.003
2472.0,0.003
2471.0,0.0024
2470.0,0.0029
2469.0,0.0013
2468.0,0.0013
2467.0,0.0024
2466.0,0.0029
2465.0,0.0029
2464.0,0.0013999999999999998
2463.0,0.0023
2462.0,0.0018
2461.0,0.0033
2460.0,0.0013
2459.0,0.0018
2458.0,0.0022
2457.0,0.0022
2456.0,0.0017000000000000001
2455.0,0.0017000000000000001
2454.0,0.0017000000000000001
2453.0,0.0022
2452.0,0.0017000000000000001
2451.0,0.0010999999999999998
2450.0,0.0015999999999999999
2449.0,0.0015999999999999999
2448.0,0.0031
2447.0,0.0031
2446.0,0.002
2445.0,0.003
2444.0,0.003
2443.0,0.002
2442.0,0.0025
2441.0,0.0031
2440.0,0.0010999999999999998
2439.0,0.0010999999999999998
2438.0,0.0015999999999999999
2437.0,0.002
2436.0,0.002
2435.0,0.001
2434.0,0.001
2433.0,0.0029
2432.0,0.0029
2431.0,0.0023
2430.0,0.0014
2429.0,0.0009
2428.0,0.0019
2427.0,0.0029
2426.0,0.0029
2425.0,0.0009
2424.0,0.0029
2423.0,0.0029
2422.0,0.0024000000000000002
2421.0,0.0009
2420.0,0.0024000000000000002
2419.0,0.0009
2418.0,0.0024000000000000002
2417.0,0.0024000000000000002
2416.0,0.003
2415.0,0.0010999999999999998
2414.0,0.0010999999999999998
2413.0,0.0021
2412.0,0.0015999999999999999
2411.0,0.003
2410.0,0.001
2409.0,0.0015
2408.0,0.003
2407.0,0.0015
2406.0,0.003
2405.0,0.001
2404.0,0.0029
2403.0,0.0009
2402.0,0.0019
2401.0,0.0019
2400.0,0.0007999999999999999
2399.0,0.0007999999999999999
2398.0,0.0018
2397.0,0.0018
2396.0,0.0018
2395.0,0.0007999999999999999
2394.0,0.0009
2393.0,0.0029
2392.0,0.0014
2391.0,0.0007999999999999999
2390.0,0.0018
2389.0,0.0023
2388.0,0.0028
2387.0,0.0007999999999999999
2386.0,0.0021999999999999997
2385.0,0.0012
2384.0,0.0027
2383.0,0.0027
2382.0,0.0021999999999999997
2381.0,0.0027
2380.0,0.0012
2379.0,0.0006999999999999999
2378.0,0.0012
2377.0,0.0006999999999999999
2376.0,0.0026
2375.0,0.0021000000000000003
2374.0,0.0026
2373.0,0.0006999999999999999
2372.0,0.0021999999999999997
2371.0,0.0021999999999999997
2370.0,0.0006999999999999999
2369.0,0.0026
2368.0,0.0026
2367.0,0.0011
2366.0,0.0021000000000000003
2365.0,0.0021000000000000003
2364.0,0.0021999999999999997
2363.0,0.0012
2362.0,0.0011
2361.0,0.0021000000000000003
2360.0,0.0026
2359.0,0.0021000000000000003
2358.0,0.0011
2357.0,0.0006000000000000001
2356.0,0.0021000000000000003
2355.0,0.0026
2354.0,0.0017
2353.0,0.0006999999999999999
2352.0,0.0026
2351.0,0.0006000000000000001
2350.0,0.0005
2349.0,0.0016
2348.0,0.0026
2347.0,0.0006000000000000001
2346.0,0.0005
2345.0,0.0015
2344.0,0.001
2343.0,0.0015
2342.0,0.0016
2341.0,0.0006000000000000001
2340.0,0.0011
2339.0,0.001
2338.0,0.001
2337.0,0.001
2336.0,0.0021000000000000003
2335.0,0.0011
2334.0,0.0016
2333.0,0.0025
2332.0,0.0005
2331.0,0.002
2330.0,0.0009
2329.0,0.0019
2328.0,0.0019
2327.0,0.0019
2326.0,0.0015
2325.0,0.0015
2324.0,0.002
2323.0,0.002
2322.0,0.0015
2321.0,0.0005
2320.0,0.0015
2319.0,0.0015
2318.0,0.0025
2317.0,0.0025
2316.0,0.0024000000000000002
2315.0,0.0024000000000000002
2314.0,0.00039999999999999996
2313.0,0.0024000000000000002
2312.0,0.0019
2311.0,0.0025
2310.0,0.0005
2309.0,0.001
2308.0,0.002
2307.0,0.0016
2306.0,0.0006000000000000001
2305.0,0.0021000000000000003
2304.0,0.0016
2303.0,0.0006000000000000001
2302.0,0.0021000000000000003
2301.0,0.0016
2300.0,0.0012
2299.0,0.0021999999999999997
2298.0,0.0017
2297.0,0.0006999999999999999
2296.0,0.0027
2295.0,0.0026
2294.0,0.0006000000000000001
2293.0,0.0016
2292.0,0.0021000000000000003
2291.0,0.0026
2290.0,0.0026
2289.0,0.0026
2288.0,0.0012
2287.0,0.0006999999999999999
2286.0,0.0012
2285.0,0.0012
2284.0,0.0021999999999999997
2283.0,0.0027
2282.0,0.0017
2281.0,0.0026
2280.0,0.0006000000000000001
2279.0,0.0026
2278.0,0.0016
2277.0,0.0027
2276.0,0.0017
2275.0,0.0017
2274.0,0.0012
2273.0,0.0018
2272.0,0.0007999999999999999
2271.0,0.0012
2270.0,0.0027
2269.0,0.0012
2268.0,0.0006999999999999999
2267.0,0.0017
2266.0,0.0023
2265.0,0.0013
2264.0,0.0024000000000000002
2263.0,0.0014
2262.0,0.0014
2261.0,0.0014
2260.0,0.0014
2259.0,0.0009
2258.0,0.0024000000000000002
2257.0,0.0029
2256.0,0.0023
2255.0,0.0018
2254.0,0.0027
2253.0,0.0006999999999999999
2252.0,0.0012
2251.0,0.0028
2250.0,0.001
2249.0,0.001
2248.0,0.0015
2247.0,0.0029
2246.0,0.0027
2245.0,0.0006999999999999999
2244.0,0.0006000000000000001
2243.0,0.0016
2242.0,0.0017
2241.0,0.0029
2240.0,0.0025
2239.0,0.0015999999999999999
2238.0,0.0031
2237.0,0.002
2236.0,0.0029
2235.0,0.0021999999999999997
2234.0,0.0012
2233.0,0.0021999999999999997
2232.0,0.0012
2231.0,0.0017
2230.0,0.0023
2229.0,0.0024000000000000002
2228.0,0.0009
2227.0,0.0013
2226.0,0.0013
2225.0,0.0006999999999999999
2224.0,0.0027
2223.0,0.0023
2222.0,0.0014
2221.0,0.0019
2220.0,0.0025
2219.0,0.002
2218.0,0.0015
2217.0,0.001
2216.0,0.0009
2215.0,0.0014
2214.0,0.0014
2213.0,0.0024000000000000002
2212.0,0.0014
2211.0,0.0029
2210.0,0.0013
2209.0,0.0018
2208.0,0.0028
2207.0,0.0013
2206.0,0.0024000000000000002
2205.0,0.0014
2204.0,0.0019
2203.0,0.0019
2202.0,0.0013
2201.0,0.0023
2200.0,0.0028
2199.0,0.0028
2198.0,0.0028
2197.0,0.0019
2196.0,0.001
2195.0,0.0031
2194.0,0.0026
2193.0,0.0010999999999999998
2192.0,0.0012000000000000001
2191.0,0.0027
2190.0,0.0032
2189.0,0.0032
2188.0,0.0027
2187.0,0.0017000000000000001
2186.0,0.0031
2185.0,0.0021
2184.0,0.0021
2183.0,0.0025
2182.0,0.0015
2181.0,0.003
2180.0,0.0009
2179.0,0.0025
2178.0,0.003
2177.0,0.0015
2176.0,0.0026
2175.0,0.0026
2174.0,0.0031
2173.0,0.0010999999999999998
2172.0,0.0026
2171.0,0.002
2170.0,0.0025
2169.0,0.0024000000000000002
2168.0,0.0009
2167.0,0.0009
2166.0,0.0009
2165.0,0.001
2164.0,0.0010999999999999998
2163.0,0.0022
2162.0,0.0010999999999999998
2161.0,0.002
2160.0,0.0024000000000000002
2159.0,0.0019
2158.0,0.0019
2157.0,0.0025
2156.0,0.0026
2155.0,0.0031
2154.0,0.0026
2153.0,0.003
2152.0,0.001
2151.0,0.0010999999999999998
2150.0,0.0026
2149.0,0.0031
2148.0,0.0021
2147.0,0.0015999999999999999
2146.0,0.003
2145.0,0.002
2144.0,0.0015
2143.0,0.0010999999999999998
2142.0,0.0026
2141.0,0.0017000000000000001
2140.0,0.0032
2139.0,0.0012000000000000001
2138.0,0.0026
2137.0,0.0021
2136.0,0.0015999999999999999
2135.0,0.0031
2134.0,0.0032
2133.0,0.0013
2132.0,0.0033
2131.0,0.0023
2130.0,0.0013
2129.0,0.0033
2128.0,0.0029
2127.0,0.0018999999999999998
2126.0,0.0013
2125.0,0.0013
2124.0,0.0033
2123.0,0.0012000000000000001
2122.0,0.0032
2121.0,0.0012000000000000001
2120.0,0.0012000000000000001
2119.0,0.0028
2118.0,0.0028
2117.0,0.0032
2116.0,0.0022
2115.0,0.0031
2114.0,0.0025
2113.0,0.003
2112.0,0.0015
2111.0,0.0021
2110.0,0.0027
2109.0,0.0027
2108.0,0.0018
2107.0,0.0013
2106.0,0.0018
2105.0,0.0018999999999999998
2104.0,0.0029
2103.0,0.0028
2102.0,0.0018
2101.0,0.0027
2100.0,0.0032
2099.0,0.0013
2098.0,0.0033
2097.0,0.0024
2096.0,0.0029
2095.0,0.0034
2094.0,0.0029
2093.0,0.0029
2092.0,0.0034
2091.0,0.0024
2090.0,0.0024
2089.0,0.0034
2088.0,0.0024
2087.0,0.0034
2086.0,0.0028
2085.0,0.0023
2084.0,0.0028
2083.0,0.0013
2082.0,0.0027
2081.0,0.0017000000000000001
2080.0,0.0013
2079.0,0.0023
2078.0,0.0018
2077.0,0.0033
2076.0,0.0028
2075.0,0.0033
2074.0,0.0018
2073.0,0.0018
2072.0,0.0013
2071.0,0.0033
2070.0,0.0032
2069.0,0.0022
2068.0,0.0027
2067.0,0.0015999999999999999
2066.0,0.0010999999999999998
2065.0,0.001
2064.0,0.003
2063.0,0.003
2062.0,0.0025
2061.0,0.0021
2060.0,0.0015999999999999999
2059.0,0.0015999999999999999
2058.0,0.002
2057.0,0.002
2056.0,0.0021
2055.0,0.0021
2054.0,0.0032
2053.0,0.0027
2052.0,0.0032
2051.0,0.0017000000000000001
2050.0,0.0022
2049.0,0.0017000000000000001
2048.0,0.0012000000000000001
2047.0,0.0022
2046.0,0.0012000000000000001
2045.0,0.0026
2044.0,0.003
2043.0,0.0018
2042.0,0.0016
2041.0,0.0016
2040.0,0.0011
2039.0,0.0021999999999999997
2038.0,0.0013
2037.0,0.0018
2036.0,0.0028
2035.0,0.0024000000000000002
2034.0,0.0014
2033.0,0.0009
2032.0,0.001
2031.0,0.001
2030.0,0.0025
2029.0,0.001
2028.0,0.0014
2027.0,0.0024000000000000002
2026.0,0.0014
2025.0,0.0029
2024.0,0.0018
2023.0,0.0013
2022.0,0.0018
2021.0,0.0017
2020.0,0.0027
2019.0,0.0026
2018.0,0.0006999999999999999
2017.0,0.0007999999999999999
2016.0,0.001
2015.0,0.003
2014.0,0.0015
2013.0,0.0014
2012.0,0.0009
2011.0,0.0029
2010.0,0.0025
2009.0,0.0021
2008.0,0.0022
2007.0,0.0012000000000000001
2006.0,0.0032
2005.0,0.0010999999999999998
2004.0,0.002
2003.0,0.0009
2002.0,0.0024000000000000002
2001.0,0.0015
2000.0,0.0026
1999.0,0.0012000000000000001
1998.0,0.0018
1997.0,0.0013
1996.0,0.0018999999999999998
1995.0,0.0013999999999999998
1994.0,0.0034
1993.0,0.0024
1992.0,0.0034
1991.0,0.0018999999999999998
1990.0,0.0024
1989.0,0.0035
1988.0,0.0026
1987.0,0.0026
1986.0,0.0015999999999999999
1985.0,0.0037
1984.0,0.0017000000000000001
1983.0,0.0037
1982.0,0.0027
1981.0,0.0027
1980.0,0.0032
1979.0,0.0027
1978.0,0.0037
1977.0,0.0037
1976.0,0.0038
1975.0,0.0018
1974.0,0.0028
1973.0,0.0034
1972.0,0.0038
1971.0,0.0028
1970.0,0.0037
1969.0,0.0021
1968.0,0.0015
1967.0,0.0015999999999999999
1966.0,0.0022
1965.0,0.0034
1964.0,0.003
1963.0,0.0025
1962.0,0.0029
1961.0,0.0034
1960.0,0.0025
1959.0,0.0040999999999999995
1958.0,0.0040999999999999995
1957.0,0.0022
1956.0,0.0032
1955.0,0.0032
1954.0,0.0031
1953.0,0.0036
1952.0,0.002
1951.0,0.0018999999999999998
1950.0,0.0035
1949.0,0.0021
1948.0,0.0040999999999999995
1947.0,0.0040999999999999995
1946.0,0.004
1945.0,0.0018999999999999998
1944.0,0.0039
1943.0,0.0023
1942.0,0.0039
1941.0,0.0029
1940.0,0.0035
1939.0,0.003
1938.0,0.0034
1937.0,0.0024
1936.0,0.0039
1935.0,0.002
1934.0,0.003
1933.0,0.0021
1932.0,0.0026
1931.0,0.004200000000000001
1930.0,0.0037
1929.0,0.0038
1928.0,0.0038
1927.0,0.0028
1926.0,0.0023
1925.0,0.0038
1924.0,0.0038
1923.0,0.0033
1922.0,0.0043
1921.0,0.0038
1920.0,0.0038
1919.0,0.004200000000000001
1918.0,0.0032
1917.0,0.0040999999999999995
1916.0,0.0034
1915.0,0.0034
1914.0,0.0033
1913.0,0.0023
1912.0,0.0018999999999999998
1911.0,0.0038
1910.0,0.0022
1909.0,0.0032
1908.0,0.0036
1907.0,0.0032
1906.0,0.0037
1905.0,0.0017000000000000001
1904.0,0.0017000000000000001
1903.0,0.0015999999999999999
1902.0,0.0036
1901.0,0.0025
1900.0,0.0025
1899.0,0.0034
1898.0,0.0024
1897.0,0.0029
1896.0,0.0024
1895.0,0.0013999999999999998
1894.0,0.0029
1893.0,0.003
1892.0,0.003
1891.0,0.0025
1890.0,0.0015
1889.0,0.0034
1888.0,0.0018999999999999998
1887.0,0.0029
1886.0,0.0018999999999999998
1885.0,0.0029
1884.0,0.0013999999999999998
1883.0,0.0018999999999999998
1882.0,0.0024
1881.0,0.0034
1880.0,0.0034
1879.0,0.0018
1878.0,0.0023
1877.0,0.0018
1876.0,0.0018999999999999998
1875.0,0.0018999999999999998
1874.0,0.0024
1873.0,0.0013
1872.0,0.0028
1871.0,0.0032
1870.0,0.0026
1869.0,0.0010999999999999998
1868.0,0.0022
1867.0,0.0027
1866.0,0.0032
1865.0,0.0012000000000000001
1864.0,0.0017000000000000001
1863.0,0.0027
1862.0,0.0012000000000000001
1861.0,0.0031
1860.0,0.0021
1859.0,0.0026
1858.0,0.0031
1857.0,0.0021
1856.0,0.0031
1855.0,0.0015
1854.0,0.0015
1853.0,0.001
1852.0,0.001
1851.0,0.001
1850.0,0.0015
1849.0,0.0015
1848.0,0.003
1847.0,0.0024000000000000002
1846.0,0.0024000000000000002
1845.0,0.0014
1844.0,0.0014
1843.0,0.0009
1842.0,0.002
1841.0,0.0025
1840.0,0.0026
1839.0,0.0015
1838.0,0.001
1837.0,0.0015
1836.0,0.0025
1835.0,0.002
1834.0,0.0031
1833.0,0.002
1832.0,0.002
1831.0,0.0015
1830.0,0.001
1829.0,0.002
1828.0,0.0026
1827.0,0.0026
1826.0,0.0010999999999999998
1825.0,0.0015999999999999999
1824.0,0.0022
1823.0,0.0012000000000000001
1822.0,0.0017000000000000001
1821.0,0.0027
1820.0,0.0027
1819.0,0.0017000000000000001
1818.0,0.0032
1817.0,0.0032
1816.0,0.0012000000000000001
1815.0,0.0022
1814.0,0.0032
1813.0,0.0017000000000000001
1812.0,0.0023
1811.0,0.0013
1810.0,0.0033
1809.0,0.0023
1808.0,0.0013999999999999998
1807.0,0.0034
1806.0,0.0034
1805.0,0.0034
1804.0,0.0024
1803.0,0.0024
1802.0,0.0018999999999999998
1801.0,0.0035
1800.0,0.0035
1799.0,0.003
1798.0,0.0025
1797.0,0.0025
1796.0,0.0026
1795.0,0.0015999999999999999
1794.0,0.0036
1793.0,0.0031
1792.0,0.0036
1791.0,0.0015999999999999999
1790.0,0.0031
1789.0,0.0022
1788.0,0.0032
1787.0,0.0033
1786.0,0.0028
1785.0,0.0034
1784.0,0.0025
1783.0,0.0036
1782.0,0.0021
1781.0,0.0021
1780.0,0.0022
1779.0,0.0022
1778.0,0.0023
1777.0,0.0029
1776.0,0.0025
1775.0,0.0031
1774.0,0.004200000000000001
1773.0,0.0033
1772.0,0.004
1771.0,0.0046
1770.0,0.0031999999999999997
1769.0,0.0054
1768.0,0.0040999999999999995
1767.0,0.0048
1766.0,0.0045000000000000005
1765.0,0.0046
1764.0,0.0043
1763.0,0.0049
1762.0,0.0060999999999999995
1761.0,0.0063999999999999994
1760.0,0.0061
1759.0,0.0052
1758.0,0.0064
1757.0,0.0071
1756.0,0.0078
1755.0,0.0069
1754.0,0.007
1753.0,0.0081
1752.0,0.0083
1751.0,0.008
1750.0,0.0067
1749.0,0.007599999999999999
1748.0,0.009399999999999999
1747.0,0.009300000000000001
1746.0,0.0093
1745.0,0.0093
1744.0,0.0105
1743.0,0.012299999999999998
1742.0,0.0132
1741.0,0.0142
1740.0,0.0145
1739.0,0.0164
1738.0,0.0176
1737.0,0.0177
1736.0,0.0185
1735.0,0.0221
1734.0,0.022
1733.0,0.024900000000000002
1732.0,0.0253
1731.0,0.0247
1730.0,0.0264
1729.0,0.0252
1728.0,0.0253
1727.0,0.0251
1726.0,0.0247
1725.0,0.023200000000000002
1724.0,0.0212
1723.0,0.0208
1722.0,0.0205
1721.0,0.0199
1720.0,0.0193
1719.0,0.0176
1718.0,0.0166
1717.0,0.0167
1716.0,0.016
1715.0,0.0174
1714.0,0.0168
1713.0,0.0172
1712.0,0.0165
1711.0,0.0167
1710.0,0.016900000000000002
1709.0,0.0156
1708.0,0.0162
1707.0,0.0137
1706.0,0.015200000000000002
1705.0,0.0137
1704.0,0.012799999999999999
1703.0,0.013999999999999999
1702.0,0.013600000000000001
1701.0,0.0121
1700.0,0.0104
1699.0,0.0109
1698.0,0.01
1697.0,0.0093
1696.0,0.0106
1695.0,0.011
1694.0,0.0109
1693.0,0.0109
1692.0,0.01
1691.0,0.0091
1690.0,0.009899999999999999
1689.0,0.011300000000000001
1688.0,0.0117
1687.0,0.0126
1686.0,0.0121
1685.0,0.0129
1684.0,0.0144
1683.0,0.0152
1682.0,0.0163
1681.0,0.0159
1680.0,0.0159
1679.0,0.0169
1678.0,0.0163
1677.0,0.018000000000000002
1676.0,0.0173
1675.0,0.019
1674.0,0.0171
1673.0,0.0176
1672.0,0.0171
1671.0,0.0171
1670.0,0.0182
1669.0,0.019200000000000002
1668.0,0.0182
1667.0,0.019200000000000002
1666.0,0.0181
1665.0,0.018
1664.0,0.0184
1663.0,0.0172
1662.0,0.0169
1661.0,0.0167
1660.0,0.016399999999999998
1659.0,0.0166
1658.0,0.0163
1657.0,0.017
1656.0,0.0167
1655.0,0.0163
1654.0,0.0144
1653.0,0.0141
1652.0,0.013500000000000002
1651.0,0.015000000000000001
1650.0,0.0145
1649.0,0.0145
1648.0,0.014
1647.0,0.0145
1646.0,0.0145
1645.0,0.0144
1644.0,0.0142
1643.0,0.013000000000000001
1642.0,0.0142
1641.0,0.0133
1640.0,0.013
1639.0,0.0126
1638.0,0.0117
1637.0,0.0119
1636.0,0.0122
1635.0,0.0109
1634.0,0.012299999999999998
1633.0,0.0102
1632.0,0.0107
1631.0,0.0113
1630.0,0.0109
1629.0,0.012
1628.0,0.0117
1627.0,0.0117
1626.0,0.010599999999999998
1625.0,0.010799999999999999
1624.0,0.0106
1623.0,0.0103
1622.0,0.011699999999999999
1621.0,0.0116
1620.0,0.0112
1619.0,0.0108
1618.0,0.0102
1617.0,0.013000000000000001
1616.0,0.0135
1615.0,0.013000000000000001
1614.0,0.015300000000000001
1613.0,0.015099999999999999
1612.0,0.0162
1611.0,0.0165
1610.0,0.0159
1609.0,0.015
1608.0,0.0152
1607.0,0.0148
1606.0,0.0137
1605.0,0.0133
1604.0,0.012400000000000001
1603.0,0.0106
1602.0,0.0109
1601.0,0.0104
1600.0,0.009
1599.0,0.0091
1598.0,0.008700000000000001
1597.0,0.006900000000000001
1596.0,0.0066
1595.0,0.0068000000000000005
1594.0,0.008
1593.0,0.0063999999999999994
1592.0,0.0078
1591.0,0.0077
1590.0,0.0071
1589.0,0.0060999999999999995
1588.0,0.006200000000000001
1587.0,0.008
1586.0,0.0083
1585.0,0.0067
1584.0,0.007599999999999999
1583.0,0.009000000000000001
1582.0,0.0092
1581.0,0.0087
1580.0,0.009600000000000001
1579.0,0.0083
1578.0,0.009000000000000001
1577.0,0.0066
1576.0,0.0077
1575.0,0.0069
1574.0,0.0067
1573.0,0.006
1572.0,0.0074
1571.0,0.0068000000000000005
1570.0,0.0061
1569.0,0.005
1568.0,0.0069
1567.0,0.0059
1566.0,0.0068
1565.0,0.0049
1564.0,0.0069
1563.0,0.0063
1562.0,0.0063
1561.0,0.0048
1560.0,0.0068
1559.0,0.0068
1558.0,0.0054
1557.0,0.0054
1556.0,0.007
1555.0,0.005
1554.0,0.006500000000000001
1553.0,0.0061
1552.0,0.0066
1551.0,0.005600000000000001
1550.0,0.0051
1549.0,0.0062
1548.0,0.0058
1547.0,0.0063
1546.0,0.0063
1545.0,0.0064
1544.0,0.0055
1543.0,0.0075
1542.0,0.006999999999999999
1541.0,0.0076
1540.0,0.0063
1539.0,0.0074
1538.0,0.007600000000000001
1537.0,0.008199999999999999
1536.0,0.0073
1535.0,0.0079
1534.0,0.0086
1533.0,0.0078
1532.0,0.0081
1531.0,0.009399999999999999
1530.0,0.0086
1529.0,0.0089
1528.0,0.0097
1527.0,0.010599999999999998
1526.0,0.0102
1525.0,0.011800000000000001
1524.0,0.0104
1523.0,0.0132
1522.0,0.014700000000000001
1521.0,0.0162
1520.0,0.019100000000000002
1519.0,0.0213
1518.0,0.0258
1517.0,0.0313
1516.0,0.0375
1515.0,0.0429
1514.0,0.0471
1513.0,0.0491
1512.0,0.049
1511.0,0.048
1510.0,0.0436
1509.0,0.0417
1508.0,0.0364
1507.0,0.031
1506.0,0.0257
1505.0,0.0242
1504.0,0.0216
1503.0,0.0205
1502.0,0.0191
1501.0,0.0189
1500.0,0.0188
1499.0,0.0193
1498.0,0.0174
1497.0,0.0168
1496.0,0.017499999999999998
1495.0,0.0183
1494.0,0.0188
1493.0,0.0199
1492.0,0.0206
1491.0,0.0206
1490.0,0.0213
1489.0,0.0226
1488.0,0.025500000000000002
1487.0,0.0256
1486.0,0.0272
1485.0,0.028
1484.0,0.0288
1483.0,0.0294
1482.0,0.0311
1481.0,0.0301
1480.0,0.0331
1479.0,0.033800000000000004
1478.0,0.0346
1477.0,0.0356
1476.0,0.0385
1475.0,0.0393
1474.0,0.039599999999999996
1473.0,0.0405
1472.0,0.0418
1471.0,0.0439
1470.0,0.0453
1469.0,0.0447
1468.0,0.0461
1467.0,0.0485
1466.0,0.0491
1465.0,0.0493
1464.0,0.051
1463.0,0.0531
1462.0,0.0527
1461.0,0.0532
1460.0,0.0557
1459.0,0.0574
1458.0,0.0573
1457.0,0.0584
1456.0,0.06
1455.0,0.061900000000000004
1454.0,0.061900000000000004
1453.0,0.0602
1452.0,0.0601
1451.0,0.0588
1450.0,0.0593
1449.0,0.0572
1448.0,0.0564
1447.0,0.0552
1446.0,0.0537
1445.0,0.0537
1444.0,0.0523
1443.0,0.0513
1442.0,0.0495
1441.0,0.0493
1440.0,0.048
1439.0,0.0468
1438.0,0.0475
1437.0,0.0473
1436.0,0.0461
1435.0,0.044
1434.0,0.0441
1433.0,0.0431
1432.0,0.0437
1431.0,0.0423
1430.0,0.0419
1429.0,0.0426
1428.0,0.0428
1427.0,0.0421
1426.0,0.0414
1425.0,0.0423
1424.0,0.0418
1423.0,0.041299999999999996
1422.0,0.0428
1421.0,0.0428
1420.0,0.0409
1419.0,0.041299999999999996
1418.0,0.0427
1417.0,0.044
1416.0,0.0433
1415.0,0.0446
1414.0,0.0442
1413.0,0.0438
1412.0,0.0438
1411.0,0.0443
1410.0,0.044700000000000004
1409.0,0.0432
1408.0,0.0431
1407.0,0.0431
1406.0,0.0446
1405.0,0.0427
1404.0,0.0438
1403.0,0.0434
1402.0,0.043
1401.0,0.0436
1400.0,0.0444
1399.0,0.045
1398.0,0.0448
1397.0,0.0472
1396.0,0.047
1395.0,0.0486
1394.0,0.0479
1393.0,0.0496
1392.0,0.049800000000000004
1391.0,0.0481
1390.0,0.0508
1389.0,0.0508
1388.0,0.0515
1387.0,0.0523
1386.0,0.0542
1385.0,0.0536
1384.0,0.0542
1383.0,0.0535
1382.0,0.053899999999999997
1381.0,0.054
1380.0,0.0537
1379.0,0.055600000000000004
1378.0,0.0555
1377.0,0.057
1376.0,0.057
1375.0,0.058
1374.0,0.0585
1373.0,0.0576
1372.0,0.0598
1371.0,0.0586
1370.0,0.0604
1369.0,0.0626
1368.0,0.0646
1367.0,0.0659
1366.0,0.0663
1365.0,0.0668
1364.0,0.0655
1363.0,0.0626
1362.0,0.059
1361.0,0.0574
1360.0,0.0535
1359.0,0.0532
1358.0,0.0514
1357.0,0.0509
1356.0,0.0524
1355.0,0.0531
1354.0,0.0531
1353.0,0.0537
1352.0,0.054400000000000004
1351.0,0.0548
1350.0,0.0535
1349.0,0.0533
1348.0,0.054
1347.0,0.0512
1346.0,0.0509
1345.0,0.0483
1344.0,0.0466
1343.0,0.0436
1342.0,0.041299999999999996
1341.0,0.04
1340.0,0.0407
1339.0,0.0402
1338.0,0.0386
1337.0,0.0402
1336.0,0.0405
1335.0,0.0414
1334.0,0.0413
1333.0,0.0408
1332.0,0.0423
1331.0,0.0424
1330.0,0.044
1329.0,0.0434
1328.0,0.0438
1327.0,0.0429
1326.0,0.0428
1325.0,0.0426
1324.0,0.0422
1323.0,0.0432
1322.0,0.0416
1321.0,0.0412
1320.0,0.042300000000000004
1319.0,0.0406
1318.0,0.0407
1317.0,0.0425
1316.0,0.0409
1315.0,0.043500000000000004
1314.0,0.0442
1313.0,0.0439
1312.0,0.0451
1311.0,0.0462
1310.0,0.045
1309.0,0.0463
1308.0,0.0477
1307.0,0.0482
1306.0,0.0503
1305.0,0.0519
1304.0,0.0515
1303.0,0.052199999999999996
1302.0,0.0548
1301.0,0.0565
1300.0,0.0566
1299.0,0.0572
1298.0,0.0591
1297.0,0.0598
1296.0,0.0608
1295.0,0.0604
1294.0,0.0589
1293.0,0.0596
1292.0,0.0599
1291.0,0.0596
1290.0,0.059
1289.0,0.059
1288.0,0.059
1287.0,0.0595
1286.0,0.06
1285.0,0.0599
1284.0,0.0592
1283.0,0.0585
1282.0,0.0587
1281.0,0.0589
1280.0,0.0581
1279.0,0.0565
1278.0,0.0578
1277.0,0.0562
1276.0,0.0561
1275.0,0.0565
1274.0,0.0559
1273.0,0.0575
1272.0,0.0576
1271.0,0.0564
1270.0,0.0578
1269.0,0.0575
1268.0,0.0599
1267.0,0.0615
1266.0,0.0618
1265.0,0.0639
1264.0,0.0663
1263.0,0.0679
1262.0,0.0703
1261.0,0.073
1260.0,0.0744
1259.0,0.079
1258.0,0.0826
1257.0,0.0853
1256.0,0.087
1255.0,0.0916
1254.0,0.0953
1253.0,0.0975
1252.0,0.1008
1251.0,0.1035
1250.0,0.1074
1249.0,0.1085
1248.0,0.1125
1247.0,0.1127
1246.0,0.1122
1245.0,0.1122
1244.0,0.1104
1243.0,0.1056
1242.0,0.1031
1241.0,0.0966
1240.0,0.093
1239.0,0.088
1238.0,0.0832
1237.0,0.0799
1236.0,0.0759
1235.0,0.0743
1234.0,0.0709
1233.0,0.0687
1232.0,0.0661
1231.0,0.0641
1230.0,0.059699999999999996
1229.0,0.0576
1228.0,0.0576
1227.0,0.0544
1226.0,0.0534
1225.0,0.052700000000000004
1224.0,0.0507
1223.0,0.0498
1222.0,0.049
1221.0,0.047599999999999996
1220.0,0.0482
1219.0,0.0462
1218.0,0.0466
1217.0,0.0457
1216.0,0.0439
1215.0,0.0441
1214.0,0.042
1213.0,0.0419
1212.0,0.0422
1211.0,0.0403
1210.0,0.0403
1209.0,0.0376
1208.0,0.037
1207.0,0.0359
1206.0,0.0344
1205.0,0.0346
1204.0,0.0336
1203.0,0.0331
1202.0,0.0317
1201.0,0.0315
1200.0,0.0319
1199.0,0.0329
1198.0,0.0335
1197.0,0.0333
1196.0,0.0324
1195.0,0.0352
1194.0,0.0349
1193.0,0.0379
1192.0,0.0386
1191.0,0.0401
1190.0,0.0431
1189.0,0.0449
1188.0,0.0458
1187.0,0.046
1186.0,0.0474
1185.0,0.0453
1184.0,0.0431
1183.0,0.042
1182.0,0.0387
1181.0,0.0375
1180.0,0.0346
1179.0,0.0329
1178.0,0.033
1177.0,0.032
1176.0,0.0302
1175.0,0.0288
1174.0,0.0291
1173.0,0.0286
1172.0,0.0307
1171.0,0.029099999999999997
1170.0,0.0301
1169.0,0.0313
1168.0,0.0328
1167.0,0.0325
1166.0,0.0354
1165.0,0.0371
1164.0,0.0376
1163.0,0.0398
1162.0,0.0423
1161.0,0.047
1160.0,0.0479
1159.0,0.051
1158.0,0.0563
1157.0,0.0589
1156.0,0.0637
1155.0,0.0677
1154.0,0.06999999999999999
1153.0,0.0759
1152.0,0.0803
1151.0,0.0841
1150.0,0.0893
1149.0,0.09179999999999999
1148.0,0.0962
1147.0,0.1009
1146.0,0.1039
1145.0,0.1067
1144.0,0.1098
1143.0,0.1132
1142.0,0.1145
1141.0,0.1186
1140.0,0.1206
1139.0,0.122
1138.0,0.1248
1137.0,0.1277
1136.0,0.1306
1135.0,0.1334
1134.0,0.1355
1133.0,0.1369
1132.0,0.1386
1131.0,0.1383
1130.0,0.1407
1129.0,0.1398
1128.0,0.1408
1127.0,0.1427
1126.0,0.1421
1125.0,0.1427
1124.0,0.143
1123.0,0.1454
1122.0,0.1455
1121.0,0.1464
1120.0,0.1496
1119.0,0.1499
1118.0,0.1529
1117.0,0.1546
1116.0,0.158
1115.0,0.1588
1114.0,0.1615
1113.0,0.1641
1112.0,0.1655
1111.0,0.1681
1110.0,0.1679
1109.0,0.1705
1108.0,0.1694
1107.0,0.1702
1106.0,0.1714
1105.0,0.1731
1104.0,0.1724
1103.0,0.1748
1102.0,0.1749
1101.0,0.1776
1100.0,0.1772
1099.0,0.1793
1098.0,0.1826
1097.0,0.1836
1096.0,0.1861
1095.0,0.1881
1094.0,0.1885
1093.0,0.1918
1092.0,0.1926
1091.0,0.1945
1090.0,0.1945
1089.0,0.1967
1088.0,0.1974
1087.0,0.1962
1086.0,0.1958
1085.0,0.1931
1084.0,0.1915
1083.0,0.191
1082.0,0.1888
1081.0,0.1858
1080.0,0.1823
1079.0,0.1807
1078.0,0.1785
1077.0,0.1765
1076.0,0.1732
1075.0,0.1706
1074.0,0.1702
1073.0,0.168
1072.0,0.16519999999999999
1071.0,0.1651
1070.0,0.1652
1069.0,0.1626
1068.0,0.1622
1067.0,0.164
1066.0,0.1629
1065.0,0.1621
1064.0,0.163
1063.0,0.1648
1062.0,0.1646
1061.0,0.1668
1060.0,0.17
1059.0,0.1742
1058.0,0.1797
1057.0,0.1871
1056.0,0.1957
1055.0,0.2055
1054.0,0.21610000000000001
1053.0,0.225
1052.0,0.237
1051.0,0.2477
1050.0,0.2582
1049.0,0.2669
1048.0,0.2749
1047.0,0.2808
1046.0,0.2854
1045.0,0.2879
1044.0,0.2914
1043.0,0.2897
1042.0,0.2893
1041.0,0.2842
1040.0,0.2812
1039.0,0.2756
1038.0,0.2696
1037.0,0.2641
1036.0,0.2578
1035.0,0.2504
1034.0,0.241
1033.0,0.2328
1032.0,0.2246
1031.0,0.2157
1030.0,0.2079
1029.0,0.2012
1028.0,0.1927
1027.0,0.1842
1026.0,0.1758
1025.0,0.1695
1024.0,0.1618
1023.0,0.1533
1022.0,0.1453
1021.0,0.1391
1020.0,0.1326
1019.0,0.1253
1018.0,0.1189
1017.0,0.1135
1016.0,0.1074
1015.0,0.104
1014.0,0.0993
1013.0,0.0959
1012.0,0.0921
1011.0,0.09
1010.0,0.0853
1009.0,0.0814
1008.0,0.0781
1007.0,0.077
1006.0,0.0751
1005.0,0.0737
1004.0,0.0733
1003.0,0.075
1002.0,0.0749
1001.0,0.0745
1000.0,0.0743
999.0,0.0737
998.0,0.0757
997.0,0.0762
996.0,0.07680000000000001
995.0,0.0774
994.0,0.07629999999999999
993.0,0.0774
992.0,0.0766
991.0,0.0753
990.0,0.0746
989.0,0.0729
988.0,0.0705
987.0,0.0704
986.0,0.0678
985.0,0.0663
984.0,0.0631
983.0,0.0617
982.0,0.0622
981.0,0.0611
980.0,0.0591
979.0,0.0593
978.0,0.058499999999999996
977.0,0.06
976.0,0.059000000000000004
975.0,0.056799999999999996
974.0,0.058
973.0,0.0562
972.0,0.0554
971.0,0.0541
970.0,0.0534
969.0,0.052199999999999996
968.0,0.0526
967.0,0.053200000000000004
966.0,0.0526
965.0,0.052700000000000004
964.0,0.0527
963.0,0.0535
962.0,0.054
961.0,0.0567
960.0,0.0576
959.0,0.0593
958.0,0.0595
957.0,0.0618
956.0,0.064
955.0,0.0653
954.0,0.06709999999999999
953.0,0.0694
952.0,0.0721
951.0,0.0728
950.0,0.0741
949.0,0.0757
948.0,0.077
947.0,0.0754
946.0,0.0765
945.0,0.0753
944.0,0.0755
943.0,0.0767
942.0,0.0748
941.0,0.0755
940.0,0.075
939.0,0.0741
938.0,0.0749
937.0,0.077
936.0,0.0771
935.0,0.0767
934.0,0.0789
933.0,0.0782
932.0,0.0791
931.0,0.0805
930.0,0.0826
929.0,0.0816
928.0,0.08259999999999999
927.0,0.084
926.0,0.0851
925.0,0.0861
924.0,0.0858
923.0,0.0858
922.0,0.0849
921.0,0.0858
920.0,0.0848
919.0,0.08310000000000001
918.0,0.0816
917.0,0.0789
916.0,0.0766
915.0,0.0755
914.0,0.0721
913.0,0.06999999999999999
912.0,0.0684
911.0,0.0644
910.0,0.0629
909.0,0.0601
908.0,0.058
907.0,0.0561
906.0,0.0555
905.0,0.054
904.0,0.0511
903.0,0.0506
902.0,0.0513
901.0,0.048799999999999996
900.0,0.0505
899.0,0.0484
898.0,0.0485
897.0,0.051000000000000004
896.0,0.0508
895.0,0.0523
894.0,0.052199999999999996
893.0,0.054
892.0,0.0581
891.0,0.0591
890.0,0.0615
889.0,0.0659
888.0,0.07050000000000001
887.0,0.0738
886.0,0.0766
885.0,0.0813
884.0,0.0853
883.0,0.0869
882.0,0.0898
881.0,0.0915
880.0,0.09
879.0,0.0894
878.0,0.0864
877.0,0.0834
876.0,0.0783
875.0,0.0723
874.0,0.0704
873.0,0.0672
872.0,0.0639
871.0,0.0612
870.0,0.0614
869.0,0.0594
868.0,0.0592
867.0,0.0591
866.0,0.0572
865.0,0.0573
864.0,0.058
863.0,0.0579
862.0,0.0575
861.0,0.0573
860.0,0.0571
859.0,0.0581
858.0,0.06
857.0,0.0592
856.0,0.06
855.0,0.0626
854.0,0.061799999999999994
853.0,0.0642
852.0,0.0645
851.0,0.0669
850.0,0.0678
849.0,0.0699
848.0,0.0712
847.0,0.0727
846.0,0.0753
845.0,0.0774
844.0,0.0812
843.0,0.0821
842.0,0.08600000000000001
841.0,0.0873
840.0,0.0888
839.0,0.0919
838.0,0.0924
837.0,0.0934
836.0,0.0925
835.0,0.0927
834.0,0.0908
833.0,0.0914
832.0,0.0912
831.0,0.0898
830.0,0.0891
829.0,0.0888
828.0,0.0861
827.0,0.0825
826.0,0.07919999999999999
825.0,0.075
824.0,0.0726
823.0,0.0678
822.0,0.0658
821.0,0.065
820.0,0.061799999999999994
819.0,0.063
818.0,0.0611
817.0,0.061900000000000004
816.0,0.0612
815.0,0.062
814.0,0.0615
813.0,0.0602
812.0,0.0616
811.0,0.06319999999999999
810.0,0.0619
809.0,0.0629
808.0,0.0655
807.0,0.0651
806.0,0.0678
805.0,0.0673
804.0,0.068
803.0,0.0687
802.0,0.0693
801.0,0.0668
800.0,0.0675
799.0,0.0639
798.0,0.0631
797.0,0.0604
796.0,0.0588
795.0,0.0573
794.0,0.0579
793.0,0.0568
792.0,0.0544
791.0,0.0552
790.0,0.0535
789.0,0.053
788.0,0.0521
787.0,0.0523
786.0,0.0521
785.0,0.0529
784.0,0.0518
783.0,0.0512
782.0,0.0515
781.0,0.0514
780.0,0.052
779.0,0.0522
778.0,0.0529
777.0,0.0513
776.0,0.0516
775.0,0.0519
774.0,0.052199999999999996
773.0,0.053
772.0,0.0534
771.0,0.0548
770.0,0.055600000000000004
769.0,0.0553
768.0,0.0555
767.0,0.056100000000000004
766.0,0.0559
765.0,0.0552
764.0,0.0567
763.0,0.0562
762.0,0.0564
761.0,0.0591
760.0,0.0581
759.0,0.0612
758.0,0.062400000000000004
757.0,0.0625
756.0,0.063
755.0,0.0643
754.0,0.0657
753.0,0.067
752.0,0.0658
751.0,0.068
750.0,0.0675
749.0,0.0674
748.0,0.068
747.0,0.0688
746.0,0.0685
745.0,0.06659999999999999
744.0,0.0674
743.0,0.0662
742.0,0.0662
741.0,0.0663
740.0,0.0685
739.0,0.0674
738.0,0.0678
737.0,0.0687
736.0,0.0692
735.0,0.0709
734.0,0.0718
733.0,0.0718
732.0,0.0721
731.0,0.0721
730.0,0.0743
729.0,0.0743
728.0,0.0728
727.0,0.0735
726.0,0.0747
725.0,0.073
724.0,0.0754
723.0,0.0758
722.0,0.0756
721.0,0.0756
720.0,0.0771
719.0,0.0757
718.0,0.0768
717.0,0.079
716.0,0.0782
715.0,0.0783
714.0,0.0788
713.0,0.0808
712.0,0.0818
711.0,0.0803
710.0,0.0818
709.0,0.082
708.0,0.0827
707.0,0.0845
706.0,0.0851
705.0,0.0847
704.0,0.0858
703.0,0.0865
702.0,0.0872
701.0,0.0871
700.0,0.0881
699.0,0.0891
698.0,0.09
697.0,0.0926
696.0,0.0932
695.0,0.0934
694.0,0.095
693.0,0.0956
692.0,0.0966
691.0,0.0985
690.0,0.0987
689.0,0.099
688.0,0.1006
687.0,0.1012
686.0,0.1029
685.0,0.1055
684.0,0.1051
683.0,0.106
682.0,0.1076
681.0,0.1085
680.0,0.1084
679.0,0.1093
678.0,0.1088
677.0,0.1092
676.0,0.1086
675.0,0.1094
674.0,0.1097
673.0,0.1107
672.0,0.11019999999999999
671.0,0.111
670.0,0.1116
669.0,0.1123
668.0,0.1125
667.0,0.1119
666.0,0.1127
665.0,0.1142
664.0,0.1146
663.0,0.1156
662.0,0.1153
661.0,0.1162
660.0,0.1153
659.0,0.1153
658.0,0.1173
657.0,0.1171
656.0,0.1161
655.0,0.11649999999999999
654.0,0.1187
653.0,0.1177
652.0,0.1197
651.0,0.1184
650.0,0.1197
